3335,-2040,-1017
4103,-2296,775
2824,-3832,7431
776,-8696,17159
1032,-14072,-32761
1288,-18936,-14841
1800,-23800,2567
2057,-24568,6407
5385,-22264,25351
11784,-18168,-20985
19463,-5368,-11769
28166,12552,-6904
-27643,30728,-31224
-20219,-16120,-29944
-15611,520,-30199
-15867,14600,-30199
-23547,20744,-30199
29445,17672,-30711
17669,17928,-29943
11525,18184,-10743
8709,7432,30217
6918,-6904,776
5383,-20984,24072
4871,32008,-22776
3591,25352,-13048
2567,20488,-5368
2055,12296,8
1800,5128,3592
1032,1032,8200
-1016,-2041,11527
-1272,-3065,13319
-248,-2809,13831
264,-2296,13831
8,-2296,14343
-248,-2297,14599
8,-3064,15111
8,-3064,15367
264,-2808,15623
8,-2552,16391
8,-2296,17159
8,-2040,17415
8,-2296,17671
-760,-3321,17927
-760,-3321,18183
-760,-2809,18439
-504,-2297,19463
-760,-2553,20487
-1016,-2553,21255
-760,-2297,21767
-504,-2297,22023
-504,-2297,23047
-760,-2041,23815
-760,-2809,23815
-1016,-4089,24583
-1528,-4089,26119
-1528,-4089,27143
-1784,-4345,28167
-1528,-4089,28167
-760,-4345,30215
-1272,-4601,32007
-2040,-4857,32263
-2040,-5369,32519
-1272,-5369,-31225
-504,-6137,-30201
-504,-6649,-30201
-248,-6393,-29945
264,-6648,-29945
1032,-6904,-28921
1544,-6904,-27897
1544,-7928,-28153
1032,-8440,-29177
1288,-8440,-29945
2056,-8184,-31225
2312,-7928,-32761
2824,-6904,30471
4616,-5880,27911
4616,-5112,25607
4360,-3064,23303
5384,-2040,20231
5640,-2040,16903
5640,-1528,14855
5896,8,13832
5640,776,12808
5640,776,9736
5896,776,8456
5896,1544,7944
5640,2056,6920
5384,2568,5640
5128,2312,4872
5640,2312,5128
5640,2824,5128
4872,3080,4104
5128,3336,3336
4872,3336,3336
4360,2824,3336
5640,2824,3080
5896,4104,3080
5384,3848,2824
4616,3336,3080
4360,3336,3336
4616,3592,3080
4616,3848,3592
5128,3848,4104
4872,3592,4360
4872,3592,4104
4616,3336,4360
3848,3080,4104
3848,3336,4616
4872,3592,5640
4872,3592,5896
4616,3592,5384
4872,3336,5384
4616,3080,5896
4872,3080,6152
4616,3336,6408
3848,3592,6408
3848,3336,6664
4616,3336,7176
3848,3080,7432
3592,2824,7432
5128,4360,7432
5640,4360,7432
5384,4104,7688
4872,3336,7432
3592,3080,7432
4104,3592,7432
5640,4104,7176
5896,4360,7176
4360,4104,7176
4360,3848,6664
4616,4104,6408
5128,3848,6152
5128,4104,5896
3592,3592,6152
2824,3080,6152
3336,2824,5640
4872,3080,5384
4872,3336,5128
2824,3336,5640
2824,3592,5640
3336,3080,5128
3336,2824,4872
3592,3080,4872
3848,3080,4872
3848,3336,4872
3848,3592,4360
3848,3848,4104
4360,3848,4104
3848,3592,5128
3592,4360,6152
3848,6408,6408
4360,7688,6920
5640,8456,7944
6152,9736,8712
4360,9736,9224
4616,9992,9736
5384,10760,9992
5128,10760,9992
5896,18440,7688
6920,23304,2824
6664,23560,-1272
6919,22536,-4344
7943,23304,-7928
8967,24072,-9720
9479,22792,-9720
8967,20744,-7928
8711,18696,-6392
7687,16136,-4600
5127,12552,-1272
2311,6920,2056
1800,1800,2568
1032,520,2312
520,-504,2055
520,-3064,1031
264,-4344,775
1032,-4600,775
2312,-3320,7
2312,-3064,-249
1799,-2808,-505
1287,-3064,-505
1287,-2808,-505
1799,-1528,-505
2311,-1016,-505
2311,-1272,-249
1799,-2040,-505
1799,-2296,-249
2055,-2040,-505
2055,-1016,775
2568,-248,775
2312,-248,1543
2312,-2040,6151
2056,-5880,15623
1032,-10488,32519
776,-15608,-16121
520,-20728,519
3081,-21240,-2297
6920,-18680,24839
10760,-15864,-23033
17415,-5368,-13561
27142,13320,-7160
-27899,32264,-30200
-20731,-14840,-29432
-18427,1288,-31223
-18427,15112,-30199
-21499,22536,-29431
-31227,19464,-30199
20741,17928,-30199
17157,18184,-30199
10501,13064,21001
7686,8,-5879
4614,-14584,19464
3335,-28664,-26360
3591,28424,-14584
3335,24584,-5880
2567,16904,8
520,7688,3848
-504,2567,8712
-248,7,12552
-248,-1273,14599
-504,-2297,15111
-760,-2809,15367
-760,-2553,16903
-504,-2041,17415
-504,-2297,17927
-504,-2041,18183
-760,-1785,18439
-1528,-2553,19975
-1528,-2809,20231
-2296,-2553,20231
-2040,-2553,20743
-2040,-2553,21511
-2296,-2809,21767
-2552,-2297,21767
-2040,-1529,23047
-2040,-1785,23559
-2040,-2297,24327
-1528,-2297,25351
-1528,-2297,25607
-2040,-2809,26631
-3576,-3577,27911
-3576,-4089,28679
-3064,-4089,29191
-2808,-3577,30983
-2808,-3577,32007
-2808,-3577,-32505
-3320,-4089,-31481
-3320,-4345,-29945
-2552,-4089,-28153
-2808,-4345,-26873
-2808,-4601,-26361
-2808,-5881,-25081
-3320,-6905,-23545
-3576,-6905,-23289
-2296,-6905,-23289
-1016,-6393,-22265
-760,-6393,-21241
-1016,-6137,-21241
-1272,-6137,-21497
8,-6904,-21497
520,-6648,-21497
1800,-5880,-22521
2312,-5112,-25593
2568,-4344,-28153
3080,-4344,-30201
3080,-3576,32263
3336,-2296,28167
4872,-504,24583
4872,8,22024
4616,-248,19975
4616,1032,16904
4360,2056,14088
4616,2056,12808
5128,2568,12296
4872,3592,10504
4616,3336,8456
4360,3592,8200
4104,3336,8200
3848,3080,7176
4360,3336,5640
4360,3592,5384
4616,3592,5384
4360,3592,5384
4104,3592,5128
4360,4616,5384
4360,4872,5384
4872,4360,4872
5128,4360,4360
4872,4360,4360
4872,4616,5384
4616,4872,5640
4872,4616,5640
4616,4616,5640
4360,4616,6152
4360,4872,6408
5128,4872,6664
5128,4616,6920
4872,4616,7176
5128,4616,7432
4616,4872,8456
4360,4616,8456
4360,3848,8456
3592,3592,8456
3848,3848,9224
4616,4360,9736
4872,4360,9736
5128,4616,9736
4616,4104,9992
3848,3592,10248
3848,3592,10504
4360,3592,10248
4616,3336,10248
4360,3336,11016
5384,3336,11016
6408,3592,12296
6920,5640,13832
8200,10504,15112
8712,15624,14856
9480,21000,13576
11784,29704,16392
12808,-24568,25864
13832,-12792,-27640
15624,1800,-15351
16392,18184,-3063
16392,-32504,11785
16393,-18424,26121
15625,-6136,-30455
15113,5896,-31734
13833,19720,25098
13065,27656,17162
12809,27656,6922
11785,27656,-21238
11528,28424,-1782
11783,28424,-15862
12039,27912,-17654
13062,28168,16906
14086,27912,-5110
14085,28168,-9462
14597,27912,-5110
13317,28424,-1526
9221,26632,6666
3846,4616,20746
-2042,-29433,32265
-3834,6407,-16887
-2298,-21241,8200
-249,21255,28936
1031,4872,-25848
1543,-7672,-19449
2311,-13816,-18425
2823,-15352,-18425
2823,-17144,-17401
2823,-18680,-16889
2567,-22264,-14841
1543,-26872,-12537
519,-30968,-9721
-1273,28423,-6393
-4089,22279,-4857
-5369,18439,-4601
-5113,17415,-4601
-5113,12807,-4857
-5625,9991,-5369
-5881,8455,-6649
-5625,7175,-6649
-4857,6919,-6649
-4345,5383,-6649
-4345,3335,-6905
-4345,2311,-6649
-5113,7,-6137
-5113,-2041,-5370
-3577,-3065,-5626
-2809,-4601,-5626
-3577,-7417,-4602
-4089,-10489,-3578
-3833,-12025,-3322
-2553,-12793,-2554
-1785,-15353,-2042
-1529,-18681,-1018
-2553,-20729,-250
-2809,-22265,-506
-2041,-23801,6
-1784,-26105,1798
-1272,-27129,2566
-1016,-27129,2822
-1016,-27129,3334
-248,-27897,5382
264,-27128,7174
1032,-25336,7942
1032,-23032,8710
776,-20216,11270
776,-17656,13574
1032,-14328,14854
2056,-8696,16134
1800,-3832,18438
2056,520,21255
2568,5896,22023
2568,12808,22023
2568,18952,23559
3336,23304,24839
4360,28936,24327
4872,-30456,23047
4104,-25848,22023
3848,-22264,22023
4104,-18936,21255
3592,-14840,19975
4360,-11256,18695
4360,-9976,18439
4104,-9208,18183
3848,-6648,17415
3336,-5368,16647
3592,-5112,15879
3848,-4856,15623
3080,-3832,15879
3080,-2296,15879
3336,-2040,15111
3592,-2296,15111
3592,-1784,15367
3592,-1272,15111
3848,-1016,14599
2824,-1016,14599
2824,-1528,14599
4104,-1528,14343
4104,-1272,14343
4360,-1016,14343
3848,-1016,13831
2824,-1016,13831
2824,-1272,13831
3336,-1528,13831
3336,-1528,13063
3336,-1272,12807
3336,-1016,12807
4104,-760,13063
3848,-760,12807
3080,-760,12295
2568,-1272,12039
2568,-1528,11783
3592,-1272,11527
4616,-760,11271
4616,264,11272
4616,776,10760
4104,776,10248
3080,520,10248
3080,264,9992
3080,520,9992
3336,520,9992
4104,520,9736
4360,1032,8968
3592,1032,8712
3592,1288,8712
3336,1544,8968
3336,1288,8712
3336,1032,8456
4104,1288,8456
4360,1032,8200
3592,776,8200
3592,776,8456
4104,1800,8200
4360,2056,8200
4360,1544,7432
3592,264,7432
3336,520,7944
3592,1544,8200
3848,2056,7688
4360,2056,7688
4360,1288,7944
4104,1288,7944
4360,1544,7688
3848,1544,6920
3080,1032,6664
3336,1032,7176
3848,1032,7432
3592,1288,7432
4360,1288,7432
4616,776,7688
4104,1032,7688
5640,2056,7432
4616,2056,7176
3080,1032,7176
3080,264,7176
3336,264,7432
4360,264,7176
4360,520,6920
3336,776,6920
3592,776,6920
3848,776,7176
4616,1032,7176
5128,1032,6664
4104,1032,6664
4104,1032,7176
4616,776,7432
4616,776,7176
4616,1544,7176
4360,1288,6664
4360,1288,6664
4104,776,6664
4360,264,6408
4616,520,6664
4104,520,7432
4104,520,7688
4616,264,7176
4616,520,6920
4616,264,6920
4104,8,7176
4104,8,6920
4616,520,6920
4872,520,6664
5640,520,6664
5384,520,6664
4104,264,6920
3848,264,6920
4872,-248,6151
4616,-248,5895
4360,264,6408
4104,520,6408
4360,264,6408
4360,264,6664
4360,264,6408
4360,8,6408
4360,-248,6407
4616,-248,6663
4616,264,6664
4104,8,6408
3848,264,6408
4616,520,6664
4872,264,6920
5384,1288,7176
5128,2312,6920
5128,2568,7688
5896,3080,8712
5640,3848,9992
4104,5640,10504
5128,6664,11016
6152,6152,12040
6408,6408,12552
5896,6664,12808
6408,14344,12808
7176,19208,9736
9992,21256,4360
10504,21256,1032
9480,21000,-2296
9223,21256,-5368
10247,19976,-6392
10759,18184,-5624
10503,15624,-3576
9479,12552,-2040
7687,9736,8
5384,3592,3336
3080,-1528,5127
1032,-3576,5127
1288,-5368,5383
2312,-7672,4103
2056,-7928,2567
1800,-8440,2823
1800,-8184,2567
1800,-7672,2055
2312,-7416,1031
2568,-6648,775
2568,-6392,1543
2824,-6648,1543
2568,-7672,1287
2312,-6904,1031
2312,-6392,1287
2312,-5880,2567
3336,-5112,2055
3336,-5624,2823
2568,-7672,8199
1544,-12024,20231
776,-16888,-27897
520,-20984,-10489
1032,-25080,5639
2569,-25848,-505
6664,-24568,25095
12040,-21496,-19961
18183,-8440,-9977
27398,10760,-4344
-27899,29448,-30200
-20475,-18424,-29688
-17915,-2808,-30456
-19963,12296,-29943
-26363,18696,-29175
27141,16648,-30455
14085,17928,-28151
8453,16136,-2807
6405,1032,-23799
5894,-5112,-10488
5382,-29432,30216
4103,24584,-18424
3591,19720,-8184
2311,14088,-1272
1031,5640,3336
1032,776,7176
1800,-2040,11783
1544,-6136,13831
520,-7416,15111
-1016,-6649,15623
-248,-6137,16135
1032,-5880,16903
1288,-5624,16647
1032,-5880,16903
-504,-6137,17927
-1784,-6905,18695
-1784,-7161,18439
-1272,-6905,18439
-1272,-6905,18439
-504,-5625,18695
8,-5368,19719
8,-6392,20487
-760,-6905,20487
-1016,-7161,20487
-1016,-7673,20743
-1272,-7417,22023
-1016,-6905,22279
-1016,-6905,23047
-1784,-6649,23815
-1784,-6905,23815
-1272,-6905,24071
-1272,-7673,24583
-1784,-8185,25863
-2040,-8953,27399
-1272,-9209,27399
-760,-8185,27143
-760,-7673,29191
-504,-8441,30727
-760,-9209,31239
-1784,-11001,31495
-1272,-11769,32263
264,-11000,-32761
8,-11000,-31993
8,-12280,-31481
520,-12280,-30713
776,-12536,-29689
1544,-13048,-29689
2824,-12792,-29945
2568,-13816,-29689
2568,-14072,-29177
3080,-14328,-29177
4360,-14072,-29689
4872,-13560,-31993
4872,-11512,30983
4872,-10744,28935
5128,-10744,26375
5640,-10232,23047
6408,-8184,20743
6920,-6136,19719
6920,-6648,17927
6408,-7160,15623
5896,-5368,13575
5896,-4088,12807
6152,-3576,12039
5896,-3576,10503
6152,-3576,8967
6664,-3320,8711
6408,-3064,8711
6152,-2808,8455
5896,-2552,7943
5128,-2296,7431
4872,-2552,6407
5896,-2808,6151
5896,-2808,6407
5896,-2808,6407
5384,-2040,6151
5128,-2040,6151
5384,-2296,6151
5640,-2040,6151
5640,-2296,6663
5128,-2296,7175
4616,-2296,7175
5128,-1784,6663
5896,-248,6663
5896,-1272,6407
4872,-3320,6919
4104,-3832,7943
4360,-3064,7943
5384,-1528,7943
5384,-2040,7943
4360,-3320,8199
3848,-2808,8711
4872,-2296,9223
6408,-2296,8967
6408,-2552,8967
5128,-3064,9991
5128,-2552,10247
5384,-1272,9735
5640,-1784,9991
5896,-2808,9991
5384,-3064,10503
4104,-2808,11271
4616,-2040,11015
5384,-1784,10247
5384,-2296,9735
5896,-1784,9991
5896,-1784,10247
5640,-1784,9991
5640,-2040,9991
5128,-3064,9991
5384,-3320,9223
5128,-2296,8711
4616,-1528,8455
4872,-1528,8199
4872,-2808,8199
5640,-2808,7943
5640,-2296,7687
5128,-2040,7943
4616,-2296,7687
4616,-2808,7687
4360,-2808,7687
4616,-2808,7687
5384,-3064,6151
5640,-2808,6151
5640,-2808,6151
5128,-2808,6151
4616,-2808,5895
4616,-2552,5895
4872,-2296,5127
4872,-2296,4615
4872,-2552,4615
3592,-3320,4871
2824,-3576,4615
4104,-3576,4871
4616,-2552,5127
4616,-1784,4871
4616,-760,5127
4616,-504,5895
4616,264,6920
5384,3080,7688
6408,5128,7944
6152,4360,7944
5640,3080,8456
5384,3848,9224
5128,7176,9224
5640,12040,8968
8200,16392,5128
8712,17928,-504
8967,18440,-4856
8967,19208,-6136
9479,19720,-9464
9735,18952,-9976
9735,17160,-9464
8711,13576,-7928
7431,10504,-5880
5895,7432,-2552
3847,3080,264
2312,-2296,1287
1288,-5368,2055
1544,-7160,1799
1800,-8696,7
1288,-9464,-1017
1287,-9720,-761
2311,-8696,-505
2823,-8184,-761
2823,-8696,-1785
2567,-8696,-1785
1799,-8440,-1785
1799,-8184,-2041
2567,-7928,-1785
2567,-7672,-1785
2823,-6904,-1785
3079,-6136,-1785
3335,-6136,-1529
3335,-6136,-1273
2055,-7160,-1273
2055,-7672,2055
2056,-9720,10247
1800,-13816,23815
1032,-19448,-25081
264,-26872,-7673
1032,-29944,4615
2825,-27640,-15609
5640,-26104,7687
11784,-18168,26887
19207,-1272,32007
28678,17928,-17400
-27131,-28152,-29944
-22267,-10232,-30200
-22011,6920,-30455
-25339,21256,-29175
30981,21256,-29431
18949,19464,-31479
10245,21512,-23543
5637,13576,10249
4614,-3064,-13560
4102,-18680,14088
3079,32008,-30968
2055,23304,-16632
2055,21768,-12536
775,11016,-1784
7,2568,1288
-760,-2553,6151
-1016,-5625,10759
-1016,-6905,12295
-504,-7161,12295
-760,-7161,13063
-1016,-7161,14343
-1272,-6905,14599
-1272,-7417,14343
-1272,-7673,14855
-1272,-7417,16135
-1272,-7161,16647
-1784,-7161,16391
-2552,-7417,16391
-2552,-7161,16647
-1272,-6905,17159
-1016,-6393,18439
-2040,-6649,18695
-3320,-7417,18951
-3320,-8185,19463
-2552,-8441,19719
-3064,-7417,21255
-2808,-7161,22023
-2552,-6905,22023
-1784,-6905,22535
-1784,-7417,23303
-2296,-7673,24327
-3832,-8185,25095
-4088,-8697,25863
-3320,-8697,26631
-2808,-8697,27911
-2552,-8953,28935
-3064,-9721,29447
-3064,-10489,30471
-3064,-10489,31495
-2808,-10489,32519
-2296,-10745,-32249
-2296,-10489,-31737
-2296,-10489,-31737
-1528,-11001,-30713
-1272,-11257,-30201
-1272,-11257,-30201
-1272,-12025,-29945
-760,-12537,-29945
-248,-12537,-29945
-504,-12281,-30457
264,-11512,-31481
1032,-11000,32007
1288,-11000,30983
2056,-9976,27143
1800,-8440,24583
2312,-7160,21255
2824,-6648,18695
3336,-5624,17159
3336,-3832,15623
3080,-3320,13575
3080,-3320,11271
2824,-3064,10503
3336,-2296,9735
4104,-1528,8455
3592,-1272,7431
2824,-1784,6663
2568,-1272,6663
3080,-248,6407
3080,-504,5383
3336,-248,5127
3080,-248,4871
2568,-504,4871
3592,-248,4871
3848,776,4872
3592,776,4872
3592,520,4872
3848,520,4616
3848,776,4360
2568,-504,4615
2568,-504,4615
3080,264,4616
4616,776,4360
4360,520,4872
3848,776,5384
3080,520,5384
3336,264,5640
3592,264,5640
3592,520,5896
3336,1032,6664
3592,776,7176
3336,776,7176
3080,776,7176
3336,776,7176
3592,1032,7176
4104,1032,7688
4360,1800,8456
4616,1800,8456
4104,1288,8456
4104,1288,8200
4104,1288,8456
4104,1032,7944
4360,1288,7944
4616,1800,8200
4616,1800,8200
4616,2056,7944
4872,1544,7944
4872,1288,7944
4616,2056,7688
4616,2312,7432
4104,1544,7432
3080,1032,7432
3336,776,6920
3592,1800,6920
3848,2056,6920
4104,1544,6920
3848,1032,6920
3848,1288,5896
4360,2056,5640
4872,2312,6152
4872,2056,6664
4360,2312,6664
4360,2056,5896
3336,1032,5384
3336,1032,5384
4104,2568,6920
4872,4360,7944
5128,4616,7688
5128,4616,7688
4616,6408,9480
4616,8200,9992
4872,8712,10504
6152,8712,11016
6152,9480,11272
6152,12552,11272
6152,17160,9480
6920,21256,4104
8456,22024,-1016
9223,22024,-3320
8967,22280,-5880
8967,22024,-8440
9223,21000,-8440
9735,19976,-6392
9735,17672,-4344
8967,15112,-3576
6919,10760,-504
3847,5384,2824
2056,776,3592
1800,-1528,3591
1544,-2552,3079
1544,-4344,1799
1800,-5624,1799
1544,-5880,1543
1032,-5880,775
1544,-4600,1031
2056,-4344,263
2824,-4344,263
2824,-4088,519
2056,-4088,263
2568,-4088,7
3848,-3064,263
4104,-2552,1031
4104,-2552,775
4104,-2040,1287
4104,-1784,1543
3848,-1784,1799
3592,-2808,5639
2824,-6136,12807
2056,-10744,26631
1544,-14840,-21241
1032,-20728,-3065
1288,-24568,5127
3849,-23288,-23289
8968,-19192,-3833
16391,-10232,10759
24839,5384,12296
-32506,23560,-27896
-23803,-23032,-29688
-20475,-16120,-29176
-17147,9480,-30711
-20219,19464,-29687
-28411,19720,-29943
25605,16392,-30711
15621,16648,-25079
10501,14088,6409
7942,2568,-16119
6406,-10744,12808
6151,-24568,-31224
4871,28424,-16632
2567,22792,-7160
1543,17928,264
1800,9480,3848
1288,2056,7688
8,-2552,12551
-248,-4345,15623
-248,-4345,16903
-248,-4345,16903
-248,-4857,17927
8,-4856,18695
-760,-5369,18951
-1272,-5881,19207
-1272,-5625,19975
-1016,-5113,21255
-504,-4857,20999
-1784,-4857,21255
-2040,-4857,22023
-1528,-5113,22791
-1784,-5369,24071
-1784,-5369,24071
-1528,-5369,24327
-2296,-5369,25351
-2552,-5369,26119
-2552,-5625,26887
-2040,-5625,27655
-1528,-5881,28679
-1528,-5369,29703
-1272,-5113,30727
-1272,-5369,31751
-2040,-5881,-32761
-2552,-6649,-31737
-2808,-6649,-30457
-3320,-6649,-29177
-3576,-7673,-27897
-3064,-7929,-26361
-2552,-7673,-24825
-2296,-7673,-23545
-2040,-7929,-22265
-2296,-9209,-20985
-2040,-8953,-20473
-1784,-9209,-20217
-1272,-9465,-19705
-1272,-9465,-18425
-760,-9977,-18425
-248,-9977,-18681
-248,-9977,-18681
776,-9720,-19705
1544,-9208,-20473
2312,-8696,-22009
3336,-8184,-24825
3336,-7416,-27897
3080,-6648,-31225
3336,-5624,31239
4616,-4088,28167
5128,-2808,24839
5128,-1784,22279
5128,-760,19975
4872,-248,17415
4872,-248,15623
5128,-504,13575
5384,-248,12807
5384,776,11784
4872,1800,10760
4616,2056,9736
4360,1288,9224
5128,1288,8712
5640,2568,8712
5640,2824,7688
5384,2056,7432
5128,1544,7176
5128,1288,6920
5384,2568,6920
5640,2824,6920
4872,2312,7176
4104,2568,7176
4616,2056,6664
5640,2312,6920
5640,2568,7432
5384,2312,7688
5384,2312,8200
4872,2312,8200
4616,1800,8200
4616,2056,8456
4872,2824,8456
4616,2568,9224
4872,2568,9992
5640,3336,9736
5896,3336,9736
5384,2568,10248
5128,2824,10248
4360,1800,9992
4360,1288,10248
5128,1544,10760
5384,2568,10760
4872,2568,11016
4872,2568,11528
4872,2568,11784
4872,1800,11528
5384,1800,11016
5128,2056,10760
4872,1544,10760
5128,1800,11272
4872,2056,11272
4616,1544,10760
4360,1544,10248
4616,2056,10248
5640,2056,10504
5384,2568,10504
4360,2312,9736
4360,1800,8968
4104,1288,8712
4872,1544,9224
5384,2056,9480
4104,1800,9480
3592,1800,9480
4872,1800,8712
5640,2056,8712
5128,2056,8712
4360,2056,8968
4360,2824,8712
5384,4104,9224
6152,5640,11272
6408,6664,11784
5896,7432,11528
5896,8712,12296
6664,9736,12808
6664,9480,13832
6664,9736,13832
6408,11016,12808
6408,15112,11784
7944,20744,7944
9736,23048,2824
9736,22024,-1016
8967,21256,-3832
9223,22280,-5368
10503,22536,-5880
10503,20488,-5624
9991,17416,-3832
9479,14600,-2040
9479,14856,-1784
5383,7432,3336
3592,1544,4360
1800,-504,5383
1544,-1272,5639
2056,-3064,4359
2056,-5112,3591
2056,-6136,3335
2568,-5112,3079
2568,-4088,2823
2312,-4344,2311
3080,-4600,2567
3336,-4088,2567
2312,-3832,2823
2312,-3064,2567
3080,-2808,2311
3848,-3064,2823
3848,-2808,2823
3592,-2040,2567
3592,-2040,3591
3848,-2040,3591
3848,-2808,5895
3336,-4856,11527
2312,-8952,23303
2056,-13560,-24313
1544,-15352,-18937
1544,-23032,5895
3593,-22776,-10233
7944,-19448,9991
14600,-13816,26631
21511,-504,30471
31238,17928,-19960
-23291,-28408,-30968
-17403,-12024,-29688
-15355,2056,-30711
-16635,13320,-29687
-23547,16648,-29687
29445,12552,-30711
17925,12296,-28151
11781,12040,-2039
9477,2568,-23287
7942,-10232,9480
5127,-22776,30984
3079,29448,-17400
2567,22280,-7160
2311,18952,776
1800,11784,4872
1544,4104,8456
1288,-760,14087
1032,-3064,17159
264,-3576,17159
-1528,-4345,18695
-504,-4601,19719
8,-4600,20999
-248,-4857,20743
-248,-5113,20999
-760,-4857,22023
-760,-4601,23303
-1272,-4601,23303
-2296,-5113,23047
-2552,-5113,23815
-1528,-5369,24583
-1016,-5113,25095
-1784,-4601,25607
-2296,-5113,26119
-2552,-5113,27399
-2552,-5369,28423
-1784,-5113,28679
-1528,-5113,29191
-3064,-5881,30215
-3576,-5881,32007
-3320,-5625,-32761
-3064,-5625,32519
-2808,-5625,-31225
-2808,-5881,-28921
-2808,-5881,-28921
-2808,-5881,-27641
-3064,-6137,-26361
-2808,-6905,-24313
-2552,-7417,-22777
-2808,-7929,-22521
-3576,-8185,-21497
-3832,-8185,-19961
-2296,-8697,-19193
-1272,-9209,-18937
-1016,-9209,-18937
-1528,-8953,-18681
-1784,-8953,-17913
-1016,-9465,-17657
-248,-10233,-17657
-504,-10233,-18169
776,-8184,-19193
1544,-7672,-20985
1800,-8184,-23289
3080,-7672,-25849
2824,-6648,-28665
3080,-5112,-32249
5384,-3832,29191
4616,-4088,26631
3080,-3576,24071
3080,-2808,23047
5128,-1528,18951
5384,-1272,17159
5128,-504,16391
3848,-760,14855
3592,-760,12807
3848,-504,12295
3848,-504,12039
4872,8,11016
4872,8,10760
4872,8,9736
4872,264,9480
5128,264,9480
5128,264,9480
4104,8,9480
4360,8,9224
5128,520,9224
5384,776,9480
5128,1288,9736
4872,1544,9480
4360,1288,9480
3592,1032,9480
3592,1032,9736
4616,1032,10248
5384,1288,10504
5384,1032,10760
4872,776,10760
4872,1288,11272
4872,1032,12040
4104,264,12040
4104,264,12296
4104,520,12808
3848,776,13064
5128,776,12808
5640,776,12808
5640,776,13832
5640,1288,14344
4616,1288,14344
4616,776,14344
5384,776,14088
5128,776,14344
5128,1032,14600
5384,520,14344
4616,520,14088
4360,264,14344
4616,8,14600
5384,8,14600
5384,264,14088
4360,8,13832
4360,-760,14087
4616,-1272,14087
4616,-248,14087
5384,520,13320
5640,776,12808
4616,8,13064
4616,-1016,13063
4872,-1016,13063
4872,-1016,13063
5384,-504,12807
5896,264,12552
5896,776,11784
4872,776,11784
4104,-248,12039
4360,-760,12295
4360,-1016,12039
4360,-760,11783
4872,8,11528
5640,1032,11784
5384,1800,13832
5640,2824,14856
5896,3848,14600
5640,4616,15368
5384,4616,16392
5896,5640,17416
6920,6664,17416
6920,6408,17160
5896,11016,16904
7176,15624,14856
8968,18696,9480
10248,19720,4616
10760,19720,1800
10248,19976,-504
10247,19720,-2296
11271,19464,-2040
12039,17416,-760
10759,13320,520
8968,9736,2568
6408,6408,6664
4104,1288,8200
3336,-2808,8455
2824,-4600,8711
1800,-5624,8455
1800,-7416,8199
2312,-8952,6919
2312,-8952,5639
2312,-8184,5895
3336,-7928,5639
3336,-7928,5639
3080,-7672,5639
3336,-6904,5639
3592,-6392,5383
3848,-6648,5639
3848,-6904,5895
3080,-6904,5895
2056,-7160,5127
2568,-7416,5127
3336,-5880,5127
3336,-5880,8199
3080,-8184,13575
2824,-12024,23559
1800,-17656,-25337
1800,-22520,-6649
2056,-26360,8967
3337,-26872,-505
5640,-25848,23815
12040,-20984,-21497
19719,-7672,-12537
28422,10248,-7416
-26107,27400,-30968
-16891,-20216,-29688
-14075,-5112,-30200
-16123,7176,-29687
-23547,11272,-29943
29957,7688,-31223
17669,8456,-26871
14085,9480,-23799
7173,-4088,-23800
6150,-17656,11528
5127,-29432,-31224
4615,25096,-14328
4103,19720,-5112
3079,14856,1544
1544,6152,7176
520,-1016,10759
264,-4600,14599
8,-5880,17159
264,-6136,19207
8,-7160,19975
8,-7416,20231
8,-7160,19975
-248,-7673,20999
-504,-8697,22535
-504,-8441,22279
-504,-8185,22023
-248,-7673,23047
264,-6648,23047
8,-6392,23047
-1784,-7673,24071
-1784,-8185,24583
-1272,-8185,24583
-1272,-8185,24839
-1528,-8185,26375
-1528,-8441,26887
-1784,-8185,28167
-1016,-8441,28423
-760,-8441,28423
-1272,-8441,29959
-1784,-8697,30471
-1784,-8953,30471
-1272,-8953,32263
-1272,-8953,-31993
-1784,-8953,-31993
-2040,-8697,-31481
-2040,-10233,-30969
-1528,-10489,-29689
-1528,-9721,-27641
-2040,-9721,-27129
-1272,-10233,-26873
-760,-11513,-25849
-760,-13049,-25081
-760,-12793,-25081
-760,-12281,-24569
-1016,-13049,-23289
-1016,-13561,-23289
8,-14072,-23801
8,-14072,-24313
776,-14072,-24313
2312,-14072,-24313
3848,-12792,-26105
4104,-12536,-28921
4104,-12536,-31993
4360,-11768,30471
5128,-11000,28423
5384,-10232,26631
5384,-8952,23815
4872,-7672,20999
4872,-6392,19463
4872,-5368,17927
4616,-5368,15879
4616,-6136,14087
5640,-5368,13063
6408,-3576,12295
6152,-3064,11527
5128,-3320,10503
4616,-4088,9991
4872,-4344,9991
4872,-4088,9223
5384,-3320,9223
5640,-2552,8967
5384,-2552,8711
5384,-3064,8711
5384,-3064,8455
4616,-3064,8455
4872,-3064,8711
4616,-2808,8711
4616,-2296,8199
4616,-2552,7943
4872,-3064,7943
5384,-3064,8199
5640,-3320,9223
5640,-2808,9223
5384,-2552,8967
5128,-2552,9479
5640,-2552,9735
4872,-3576,9735
4616,-3576,9479
5640,-2296,9735
5896,-1784,10503
6408,-1528,11527
6408,-2296,11527
4616,-3064,11271
4104,-3832,11271
5128,-3832,11271
5128,-3064,11271
5384,-3064,11271
4872,-3320,11015
4104,-4344,11015
4616,-4088,11015
5896,-3320,11015
6152,-3320,11271
5384,-3576,11015
4872,-3320,11015
4872,-4088,10759
6152,-4344,11015
5896,-4344,11015
4616,-4088,10759
4872,-3320,10759
5128,-3576,10503
5896,-3576,9991
5896,-3576,9479
4616,-4344,9479
4616,-4088,9735
5640,-4088,9479
5640,-3576,9479
5128,-2552,8967
4872,-2552,8199
4616,-3832,8199
5128,-3832,8199
5896,-3576,8199
5896,-3320,8711
4872,-3320,8455
4872,-3832,7687
4872,-3576,7687
4616,-3832,7431
3848,-3832,7175
3336,-3576,7175
3592,-3576,7431
4872,-3576,7431
5128,-3320,6663
4872,-2808,6151
4360,-2296,6407
4616,-2296,7943
4616,-1272,9223
4872,1288,8968
5384,2568,9736
6152,2312,10504
7176,2312,11272
6920,2056,12040
6664,3592,11784
6920,6664,12040
6664,11016,12296
8200,16904,7432
10248,19720,1288
11016,19720,-2296
10759,18696,-5880
9735,18696,-7416
9479,17416,-8696
9735,15368,-6392
10503,13576,-4088
10503,11528,-2552
7943,6664,8
5640,1288,3080
3592,-2808,3847
1800,-5624,3847
1800,-7416,4103
2824,-9720,3079
2568,-10744,2567
2824,-9720,2311
2824,-8952,2055
2824,-8952,1543
3592,-9720,1543
3848,-9464,1287
3080,-9464,1287
2824,-8696,1543
2824,-7416,1287
2824,-7160,1287
3080,-7160,1287
3592,-7416,1031
3848,-7160,1543
3848,-6904,1543
3848,-7160,1543
4104,-9720,9991
4104,-13048,20999
2568,-18936,-27641
1800,-25592,-10745
2056,-28664,3079
3337,-27896,-7161
7432,-26872,19975
13320,-20984,-23289
20231,-6392,-13049
28934,11528,-6392
-27643,30472,-29432
-21755,-16888,-29432
-19707,-248,-30200
-20219,15368,-30455
-27131,19976,-29943
25093,16648,-30711
13573,17416,-26615
8709,14600,-759
8453,264,-23287
6662,-15096,9736
4871,-29944,31496
4615,24584,-18168
4615,19464,-8952
4103,13320,-2040
2823,10760,8
2056,-1016,5895
2056,-4600,10503
1032,-7416,13063
264,-7672,14855
264,-7160,14855
1288,-6904,14855
1288,-7160,15623
776,-7416,16135
520,-7160,15879
520,-6904,16135
8,-7672,16647
264,-7672,17671
-504,-7673,17927
-1272,-7417,17671
-1016,-7417,18183
-760,-7417,19207
-504,-7417,19719
-760,-7417,19463
-504,-6905,19975
-760,-6649,21511
-1528,-7417,22023
-1272,-7673,22023
-760,-7161,23047
-760,-7673,24071
-1784,-8441,24071
-2808,-8953,24839
-2552,-8953,25607
-1272,-8185,26631
-1272,-7929,27911
-2296,-8185,27911
-2552,-9209,28679
-2296,-9977,30215
-2040,-9977,31751
-2040,-9721,32007
-2040,-10233,32519
-1272,-10233,-31737
-504,-10489,-30457
-248,-11001,-30201
-504,-11001,-30201
-1016,-11513,-29689
-1016,-12025,-28921
-504,-12281,-28665
520,-12280,-28921
1288,-12536,-29433
1800,-12792,-29945
2056,-11512,-30713
2568,-10232,-32505
3080,-10232,29959
3080,-9976,26887
2824,-9720,26375
4360,-7416,22279
4360,-6392,18951
4616,-5368,16647
5128,-4600,15111
4872,-3320,13575
4616,-2808,11527
4872,-2296,9991
4104,-2296,9735
3848,-2040,9479
3592,-1016,8199
4360,-248,6663
5128,-248,6151
4872,8,6408
4104,8,5640
4360,-248,5127
4104,8,4872
4616,520,4872
4872,264,4360
4616,8,4104
4360,264,4104
4616,1288,3848
4616,1544,3848
4616,776,3592
4360,520,4104
4104,520,4104
4104,1800,4104
4616,2056,4360
5128,1800,4872
5128,1544,4872
4616,1288,5128
4616,1288,5128
4872,1544,5896
4872,1800,6408
4872,2056,6664
4616,1288,7176
4616,1288,7176
4872,1544,7688
4872,1544,7432
4872,1800,7688
4360,1288,8200
3848,776,8456
4360,776,8456
5384,1544,8712
5128,1800,8712
4872,1544,8712
4872,1288,8712
4872,1544,9224
4616,1544,9224
4616,2312,9480
4872,2568,9224
5128,1800,8968
5384,1288,8712
5384,1800,8712
5640,2312,8968
6152,2312,8456
6152,2056,7944
6152,2056,7944
6152,1800,7944
6408,2312,7432
6664,2312,6920
6664,2568,6920
6408,2312,6920
6920,2312,6664
7176,2568,6664
7432,3080,6408
7688,3336,6408
7688,3592,6152
7432,3080,6152
7176,2312,6152
6408,1800,5640
6408,2056,5384
6664,3080,5640
7432,4104,7176
7944,5128,7944
7944,5384,8200
7688,7688,8456
8200,9480,8968
8712,9480,9480
8712,8712,10760
7944,8712,11016
7944,11784,10248
8456,16648,9736
9480,21000,5640
10248,22536,264
10760,22280,-3576
11015,22536,-6648
12295,23560,-8440
12807,22792,-8696
12807,21512,-8184
12295,18952,-6392
11271,16136,-4856
9991,12552,-2040
7175,7688,1288
4872,2568,2312
4104,264,2824
4104,-1272,2567
3848,-3320,2055
3848,-4600,1543
3848,-5112,519
4104,-5112,263
4360,-4600,7
4360,-4344,7
4872,-4088,7
4872,-3320,-505
4871,-3320,-761
4615,-3320,-505
5383,-3064,-505
5895,-3064,-249
6151,-1784,-761
5639,-1784,7
5128,-1784,263
5128,-2040,1031
6152,-2296,5383
5384,-5112,13063
3592,-11000,29191
3848,-16888,-19193
3592,-21496,-2809
4360,-22520,-761
7944,-21240,29959
12040,-18936,-15609
19207,-7928,-3577
28422,10248,-504
-27899,28680,-30712
-19963,-18680,-29432
-18171,-12280,-29688
-15099,14344,-30711
-18171,23816,-29431
-26875,21000,-29943
25861,16904,-30711
16133,17928,-22007
12549,13832,13577
11782,1288,-10487
9222,-12792,16136
7431,-26872,-28920
6919,28680,-15608
6151,23048,-6648
4103,16136,8
2824,7944,4104
4104,3336,8200
4104,-1272,12295
2824,-3832,15367
2824,-3576,15879
2568,-3832,15879
2056,-4344,17159
2056,-4344,18183
2056,-4088,18183
2056,-4088,18439
2312,-4344,18951
2056,-4344,20487
1288,-4600,20743
1288,-4856,20487
1288,-4856,20487
1032,-4600,21511
1032,-4088,23303
1544,-3832,23303
1288,-3832,23559
1032,-3832,24327
776,-3832,25607
1032,-3832,26119
1032,-4088,26631
1032,-4088,27655
264,-4600,29191
264,-5368,29959
264,-5112,30727
520,-4600,32007
520,-4600,-31993
8,-5624,-30969
-1016,-7161,-30713
-1016,-7417,-29177
264,-6648,-26361
520,-6904,-25337
776,-7416,-24569
520,-7416,-23545
264,-7672,-22009
1032,-7672,-21753
776,-8696,-21241
520,-9208,-21241
1032,-9464,-20473
1800,-9464,-20217
2824,-9464,-19961
2824,-9720,-20473
3336,-9208,-21753
3848,-8440,-22777
4104,-8440,-24569
4616,-7416,-27641
5384,-6136,-30713
6152,-5112,31751
7688,-3832,28423
7944,-2808,24583
7688,-2040,21255
7432,-1016,18695
7688,8,16904
7688,264,14856
7432,776,12552
8200,1288,11528
8200,1544,10504
7176,1544,8968
6920,1288,7688
6664,1288,7688
7432,2056,7688
8712,3592,6664
7688,3592,5896
6152,2312,5128
6408,1800,5128
6920,2056,4872
6920,2824,4616
7176,2824,4104
7176,2568,3848
7432,2312,4104
7176,2824,4360
6920,3080,4360
6920,2824,4616
7176,2568,4872
6920,2824,5640
6664,2824,5896
6920,2568,5896
6920,2824,5896
7176,2824,5896
7176,2824,6920
7176,3080,7432
7432,3080,7688
8200,3592,7944
8456,4104,8456
6920,3080,8712
6408,2568,8456
6408,2312,8200
6408,2056,8456
6408,2312,9224
6664,2568,9736
7176,2312,9224
7944,2312,8968
7432,2824,9224
6920,3080,9224
6920,2824,9480
6920,2056,9736
7432,2056,9224
8200,2568,9480
7944,3080,9224
7688,2824,8968
8200,3080,9224
8456,3080,9224
7944,2824,8968
7688,2568,8200
7432,2568,7944
7432,2824,7944
8456,2824,7688
8456,3080,7688
8200,3080,7944
7688,2824,7432
7432,2568,6920
8200,3592,6664
8712,3592,7432
7688,3336,7688
7432,2824,6664
7432,2568,6664
8200,3592,6664
8712,5384,8456
8712,6920,9480
8968,7944,9224
9224,8968,9736
9480,9992,11016
9736,10248,11784
8712,10248,12296
8968,12040,11784
9736,15368,11272
10504,19720,9480
11528,23048,3336
11272,22792,-1528
11527,22280,-4088
13063,23560,-6392
13319,23560,-7928
13063,22280,-7928
13319,21000,-6136
13319,18184,-4088
13063,17160,-3576
9223,10248,8
6920,5896,2824
5640,2312,3592
4872,8,3592
4872,-1528,2823
5128,-2296,2055
5384,-3576,775
5128,-4344,775
5128,-3832,775
6152,-3064,263
6152,-2808,263
6152,-3064,519
6664,-2552,-249
6407,-2808,7
6408,-2296,263
6408,-2040,7
6408,-1784,263
6408,-1784,-249
6407,-1784,7
6664,-760,775
6920,-760,2055
6664,-2296,6407
6664,-5624,15367
4616,-11000,31751
3848,-13048,-28153
4616,-20472,519
6409,-22008,-3321
9224,-20216,21511
14088,-16632,-26361
21767,-5368,-17145
31494,13064,-9720
-23291,32520,-31736
-15355,-14840,-30200
-11771,1032,-30711
-12795,13320,-29687
-17915,18696,-29943
-28155,15368,-30711
24581,13064,-30967
16133,14600,-17143
12549,7944,23049
9990,-4344,-4088
8966,-17144,20232
7687,-30968,-25336
6407,25864,-13560
5639,22280,-5624
4359,15624,520
4104,6920,4360
4104,1288,8712
3080,-1272,12551
2056,-2040,13575
2056,-2808,15623
2824,-3832,15879
2824,-3832,17159
3080,-3832,17415
1800,-3832,17927
1544,-3832,18439
2824,-3576,19207
2568,-3320,19975
2312,-3320,19719
1288,-3320,19975
8,-3320,20999
776,-3320,22023
1288,-3576,22279
1288,-3832,22279
1032,-3832,23303
8,-3832,24327
264,-4088,24839
264,-3832,25607
-248,-4089,26375
8,-3832,28167
8,-3064,29191
-248,-3065,28935
8,-4344,30215
-504,-5113,32519
-1016,-5113,-32505
-1016,-4601,-31737
-760,-4601,-29945
-504,-5113,-28153
-760,-5625,-26617
-760,-6137,-26105
-760,-6137,-25081
-760,-6137,-23033
264,-6648,-21753
8,-7416,-21753
-248,-8185,-21497
8,-8184,-21497
8,-8440,-20729
1288,-7928,-20217
2056,-7672,-20473
1800,-7928,-21497
2824,-7672,-22777
3336,-6648,-23801
3592,-6904,-26105
3848,-5880,-29177
5128,-4344,-32505
6152,-3576,29703
6152,-2808,26631
5896,-1528,23303
6152,-1272,19463
6408,-1016,18695
6408,8,15880
6408,8,13064
5896,520,11016
5896,1288,9992
6408,1800,9224
6408,1800,8200
6408,2056,6920
6408,2568,5896
6152,2312,5896
5896,2312,5384
5384,2568,4872
5640,2312,4360
5896,2312,4104
5640,2568,4104
5384,2824,4104
5640,2824,3848
5640,2568,3848
6152,2312,3848
6152,2824,4104
5896,3080,4104
5640,3080,4360
5640,2312,4360
5128,1800,4872
4872,1544,5128
4872,2568,5384
5640,3336,5384
5896,2568,5384
6408,2824,5896
5640,3080,6664
5896,2824,6920
6152,3080,7176
5384,2568,7176
5128,2568,7432
4872,2312,7688
5128,2312,7944
5640,2312,7944
5384,2312,8200
5128,2056,7944
5128,2312,8200
4616,2056,8456
5384,1800,8456
5896,2056,8200
5640,2056,8200
5128,2056,8456
5128,1800,8456
4872,1800,7688
5384,1800,7432
5384,2056,7688
5128,2312,7688
5128,2056,7688
5128,2312,7176
4872,2312,6408
4872,1288,6408
4872,1288,6664
5384,2056,5896
5640,2568,5384
5640,2824,5640
5896,1800,5640
5640,1544,5128
5384,2312,4872
4872,2568,4872
4872,1800,4616
4872,1288,4360
5128,1288,4360
5128,2056,4360
5128,2312,4104
5384,2312,4104
5128,2568,4360
5128,3336,5128
5640,5128,5896
5640,5896,6664
6152,6920,7176
6664,7944,7432
6664,8456,8456
6408,8712,9224
6408,8968,9224
5640,10760,8968
6408,15880,8968
8968,20744,4360
9480,22280,-1784
9479,22024,-4600
9991,21768,-7160
9735,21768,-9720
10247,21768,-10488
11527,21256,-9976
11015,18440,-6904
9991,14856,-5624
8199,12040,-3832
5383,7432,-760
3591,2056,776
2568,-1016,1031
1800,-2552,1031
1800,-3832,-249
1031,-5624,-761
1287,-6392,-1017
2311,-5368,-1529
2055,-4088,-1785
2055,-4088,-2297
2823,-5112,-2297
2567,-5368,-2041
2567,-4344,-2297
2823,-3832,-2041
2823,-3576,-2553
2823,-3064,-1785
2823,-3064,-1529
2823,-3064,-1785
3079,-2808,-1529
2823,-2552,-1529
3079,-2552,2311
3080,-4600,9991
2824,-9208,22535
1800,-15096,-26617
776,-19704,-7673
2056,-22008,2055
5385,-20728,-25593
9224,-18680,-7673
15367,-11512,7175
23815,3336,10248
-31738,21000,-26872
-21499,-26360,-29944
-15611,-9464,-29944
-15099,4104,-30199
-17403,13576,-29175
-24571,13320,-30455
-28411,11784,-30967
15877,10504,-24823
9989,7944,4105
8710,-3320,-18424
6662,-14584,11528
4615,-27384,32008
2567,26376,-18680
1543,21512,-9208
2055,17416,-3064
2055,10248,264
2056,4104,4616
2056,-760,9223
776,-2808,12039
-248,-2553,14087
520,-2552,14855
1032,-2552,14855
264,-2808,15623
-1016,-2809,16391
-1016,-3065,16647
-248,-3321,16903
-248,-3577,17927
-248,-3833,17927
-1784,-4345,17927
-2296,-4601,19463
-2040,-4089,20231
-1016,-3065,20487
-760,-2809,20487
-1272,-3577,20743
-1528,-3833,23047
-1528,-3577,24327
-1272,-3577,24071
-2040,-3833,23815
-2808,-4601,25863
-2808,-4601,27911
-2808,-4345,27655
-2552,-4601,27399
-2296,-4857,29191
-2296,-5369,32519
-2040,-5113,-31993
-2552,-5113,-31993
-3320,-5369,-30713
-3320,-5625,-28409
-3320,-6649,-27641
-3064,-7161,-27641
-2296,-6905,-26873
-2296,-6905,-24825
-2552,-7929,-23801
-1528,-8697,-23801
-248,-8697,-23545
8,-8696,-22777
-504,-8441,-21753
-504,-8441,-22265
520,-8184,-23801
2056,-8184,-24825
2056,-8184,-25337
2056,-8184,-27129
3592,-8440,-29945
3848,-7416,-32505
3848,-6136,30727
4104,-4344,27143
4872,-3832,23303
4872,-3576,20743
5640,-2296,18951
6408,-1784,17159
5640,-2040,14599
5384,-1784,12039
6152,-504,11527
5640,-248,11015
4872,-504,9479
4616,8,7944
5128,8,7944
5640,520,7688
5640,776,6664
4616,8,5896
3848,8,5896
4104,8,6152
3848,-248,5639
4104,-248,4871
4872,520,4360
4616,776,4360
4616,776,4616
5384,8,4872
5128,-248,4871
4360,-248,4871
4104,8,5128
4360,776,5896
5128,1032,6152
4872,776,5896
4616,776,5896
4616,776,6152
4872,264,6664
5128,520,7432
5384,520,7688
5128,1032,7432
4872,1032,7176
4872,-504,7431
5128,-1016,8199
5384,-248,8199
4872,520,8200
5128,520,7944
5384,776,8200
5640,264,8456
5384,264,8456
5640,520,8456
5640,520,8712
5640,264,8712
5128,8,8456
4360,-760,8199
5128,-1016,8199
5896,-504,7943
5896,264,7944
5640,520,8200
5896,264,8200
5640,-1016,7943
4616,-2296,6663
4616,-2040,6919
5128,-1016,6919
5384,-248,6663
5896,520,5640
5896,264,5384
5384,-248,5127
5384,8,5384
5128,-248,5383
5128,-1272,5127
4872,-1272,4871
5128,-1272,4871
5384,-1272,4615
4616,-1272,4871
4360,-1272,4871
5128,-760,4359
5128,-760,4103
4872,-504,4103
4872,-248,4103
4872,-504,3591
4872,-1784,3847
4872,-2552,3591
4872,-2296,3591
4616,-1016,3591
4872,-1016,3079
4872,-1016,3591
4872,-248,4615
4872,520,5128
4872,2056,5896
4872,3592,6664
5384,4360,6664
5896,4616,6920
6152,4360,8200
6408,6152,8712
6408,9992,8968
7176,14600,8456
8456,16136,7944
9224,18440,-1016
9223,18696,-5368
9479,19208,-8184
9479,19208,-9720
9735,18952,-9720
9735,18696,-9208
9735,14856,-8184
9991,10760,-5880
8455,8456,-2040
5639,5384,776
3848,776,776
3080,-4088,775
2824,-6904,775
2824,-7416,-249
2823,-7672,-761
2823,-8184,-1273
2823,-8440,-1529
3079,-7160,-1529
3335,-6392,-2809
3591,-7160,-2553
3591,-7416,-2297
2823,-7416,-2041
2311,-6648,-1785
2567,-6648,-2809
2823,-6904,-2809
4103,-6392,-2297
4871,-6648,-2297
4615,-6392,-1529
3591,-6136,-1785
2823,-6648,263
2824,-8696,7175
2824,-13048,20231
1800,-17912,-28153
1288,-23544,-11001
1032,-27128,519
3337,-26360,-14329
7944,-24568,9991
14856,-18168,30727
21767,-3320,-28409
30214,13832,-15352
-26363,31496,-30712
-19451,-16632,-29432
-17915,-1272,-30712
-20731,11272,-30199
-28411,14344,-29687
24837,11528,-30711
13573,13576,-25847
8709,9224,2825
7430,-6392,-19704
6406,-11768,-7160
4614,-32504,30216
3847,22536,-20472
3335,18952,-11512
2567,13832,-4344
1799,4616,-504
1031,-1016,2823
1288,-3576,7431
1544,-5368,9223
776,-5624,10759
8,-6648,11015
-760,-6905,11783
-504,-7161,12551
776,-7160,12039
1032,-7160,12039
1032,-7160,12551
1032,-6392,13575
1032,-6136,14855
776,-5112,14087
520,-4344,14087
-248,-5625,14343
-504,-6649,14855
-248,-6649,16391
-248,-6393,16647
8,-6392,16903
-248,-7417,16903
-248,-7673,18183
-1016,-6649,18951
-1272,-6393,19207
-1528,-6905,18951
-2296,-7929,20231
-1784,-8441,21511
264,-7928,22279
520,-6904,22535
520,-6648,22791
264,-6392,23815
-1016,-7673,24839
-1272,-9209,26119
-1272,-9721,27399
-1528,-10745,28423
-248,-10233,29191
1544,-9208,29703
520,-9976,29703
-1016,-10745,30215
-1016,-11769,30727
-760,-12793,30983
-248,-12793,30727
1544,-12280,30471
1544,-12280,30983
1544,-13048,31239
2312,-13304,30983
3848,-11768,28167
3848,-11768,25607
3848,-11000,24071
4104,-11000,21767
5128,-11256,18951
6152,-9208,16647
6152,-7160,14343
6152,-5880,12295
6664,-4856,9735
6920,-4856,7943
6408,-4600,7175
5128,-4088,6151
5896,-3832,4615
7176,-3320,2823
7176,-3064,2823
5896,-2808,2567
5384,-2296,1799
5128,-1528,1287
5896,-1272,1287
6920,-760,1287
6920,-504,775
5896,-760,-249
5639,-1272,-505
5383,-1784,-505
5127,-1528,-761
5639,-760,-761
5639,-1016,-761
7431,-1016,-761
7175,-760,-1017
5895,-504,-505
6151,-248,263
6664,-504,263
6408,-504,263
6408,-760,263
5640,-2296,519
5640,-2552,1287
5896,-1016,1799
5896,264,1800
6152,520,1032
5640,-1272,775
6152,-2040,2055
6152,-1784,3079
6152,-1016,3079
7176,-760,2311
6152,-1272,2311
5640,-2040,3079
5896,-2552,3591
5896,-2552,3335
5896,-2296,3591
5896,-2296,3847
6152,-2296,3591
6152,-1784,3591
5384,-1784,3335
6152,-1528,3591
6152,-1528,2823
6152,-1528,2311
7176,-1272,2311
6920,-1528,2567
6920,-1784,2567
6152,-1528,2311
4872,-1528,2055
5384,-2552,1799
6408,-2808,1799
6152,-2808,1799
6152,-3064,1543
5128,-3320,1031
5384,-3064,1287
5896,-2296,1031
5384,-1784,519
4872,-2296,263
5128,-2296,263
5384,-2040,263
5384,-2552,7
5128,-2808,7
4616,-2808,263
4616,-2552,7
5128,-1528,-249
5895,-1272,-1017
5895,-1528,-1273
5127,-1528,-1017
5127,-1528,-1273
5639,-1272,-1529
5639,-2296,-1529
5383,-2552,-1273
5639,-2296,-1273
5639,-2552,-1529
4615,-1528,-1017
4359,776,264
5896,2312,1288
7176,2312,1288
6920,3080,1288
6152,4616,1800
6152,4872,3336
6408,4872,3848
6408,6920,3592
7176,12040,3592
8968,17928,520
9224,19720,-5624
8711,18952,-10744
8711,19208,-11768
9479,20488,-15608
9735,19208,-16376
10247,17416,-15864
9991,15368,-13816
10247,12808,-11512
8967,9736,-8696
5383,5128,-5368
4103,776,-4344
3591,-2296,-3833
2823,-4600,-3833
2567,-6136,-4089
3335,-7672,-5113
3847,-8184,-5369
3847,-7672,-5369
3591,-7416,-5881
3591,-7416,-6905
3591,-7672,-6905
2823,-7416,-6649
2055,-7416,-6393
2311,-7160,-6137
3591,-6136,-6649
3847,-5880,-6905
3079,-5880,-6649
3079,-5624,-6649
3335,-5624,-6137
3591,-5368,-5881
3591,-5624,-3065
3591,-8440,4103
2568,-14072,16135
1800,-19192,32519
1800,-23288,-16121
3336,-26360,-4089
4872,-26360,-23033
7944,-24824,1287
13832,-17400,21511
21255,-2040,26631
29958,16392,-20984
-27387,-29944,-30200
-22011,-11256,-29688
-19707,5640,-30711
-21755,19464,-29431
-30459,21000,-29687
23301,18696,-30711
13061,20232,-27383
8453,15624,-2295
8197,1800,-25847
6662,-12280,5128
5639,-26872,26376
4615,26376,-24056
4359,23048,-19448
2055,14088,-7928
1287,6664,-4088
1543,264,-248
519,-4344,4615
-248,-6393,7431
-248,-6393,8199
-504,-6137,8967
-248,-6649,9735
8,-6904,10503
-1016,-7161,10247
-760,-7161,10503
264,-7160,11015
264,-6648,11783
-504,-6649,12039
-248,-6649,11527
-248,-6649,11783
-504,-6649,12807
-1272,-6393,13575
-1528,-6393,14087
-760,-6137,14087
-760,-6393,15111
-760,-6649,16391
-1272,-6649,16647
-1528,-6905,16647
-1272,-6649,17159
-1528,-6137,19207
-1528,-6393,19975
-504,-6649,20231
-504,-6393,20487
-1528,-6905,21767
-2552,-8185,23559
-2552,-8441,24583
-2040,-8185,25351
-2040,-8185,26375
-2040,-8441,27911
-1784,-8697,29191
-1528,-9209,29959
-1784,-10233,30471
-1784,-10745,31495
-1784,-11001,32007
-1272,-11257,32263
8,-11512,32519
776,-10744,-31993
264,-11000,-31737
8,-12024,-32761
-504,-13049,32519
520,-12536,32007
1544,-10744,30727
2312,-9464,29191
2824,-9464,27655
3336,-9208,22791
4104,-7160,20487
4872,-5112,17671
4872,-4600,14087
5128,-4600,11527
4872,-3320,10247
4360,-1016,8455
4360,-504,6151
4616,-1016,4359
4616,-760,3591
4872,-248,3335
4872,520,2056
4872,776,520
4872,520,520
4872,1032,520
5896,1544,8
5896,1800,-504
4615,1544,-504
3847,1288,-1272
3847,1032,-1272
4103,776,-1784
5127,1288,-2040
5383,1544,-1784
4871,1544,-1784
4871,1800,-2040
5383,2056,-2040
5639,1800,-2040
5639,2056,-2040
4871,2312,-1528
3847,1800,-1016
4103,1288,-1272
4615,1544,-1016
5127,2312,264
5384,3080,776
5128,2824,520
5128,1288,520
5384,1032,520
5128,1800,1032
4872,2312,1544
5384,2312,1800
5640,1800,2056
4872,1288,2056
4872,1544,2312
4872,1800,2824
5384,1800,2824
5896,1800,2824
5640,1800,3336
5384,1800,3592
5896,2568,3336
6408,3592,3336
6408,3080,3336
6152,1800,3336
6152,1544,3080
5640,1800,3080
5384,2568,3080
5640,2312,3080
5384,2312,2568
5128,2568,2568
5128,2824,2824
5384,2568,2824
5896,2568,2824
5128,2824,2568
5384,2568,1800
5640,2312,1800
5896,2056,2056
5896,2312,1800
4872,2568,1800
4104,2312,2056
4616,2312,1288
5896,2312,520
6920,2056,520
5896,2568,520
4872,3848,1288
5128,4616,2568
5896,4616,2824
5384,5384,3080
5640,7688,3848
5384,8200,4872
5128,8968,6152
6664,9480,7176
6920,9480,6664
6152,11784,6152
6408,15368,4616
6920,19464,264
7944,22024,-4600
8199,22280,-7928
8455,22024,-10744
8711,22024,-12792
9479,21768,-13816
9991,21256,-12536
9735,19208,-10488
9479,15112,-9976
7431,11784,-7416
4871,8200,-3320
3335,2824,-2296
2055,-760,-2297
2311,-1528,-2041
2567,-2296,-2553
2311,-4088,-3577
2055,-5112,-4089
2055,-4856,-4857
2055,-3832,-5113
2567,-4088,-4857
2311,-4600,-4857
2311,-4088,-5113
2567,-3832,-5881
1543,-3832,-5369
1799,-3576,-5369
2311,-3576,-5625
2311,-3832,-5369
3591,-3064,-5369
4359,-2296,-3577
3335,-2296,-3577
2311,-2808,-3321
2311,-4088,1287
2824,-6904,11527
2568,-12280,28167
1032,-17400,-21241
520,-22520,-5881
2056,-23800,-9465
4872,-22008,17159
10248,-18424,-31225
18695,-6648,-22009
27398,12296,-11768
30469,17672,-24056
-20987,-16376,-29176
-17147,264,-31479
-16891,15112,-30199
-21243,22024,-29943
-31995,18440,-30199
21253,15624,-30455
12549,15624,-20983
8453,8712,17161
6406,-2808,-8440
5894,-15608,15880
3847,-29688,-31224
2055,25608,-18680
2055,21512,-10488
2055,14600,-3832
519,5640,-760
7,520,4104
-504,-2041,8967
-248,-3577,11015
264,-3832,10759
520,-4856,11271
264,-4856,13063
8,-4344,13319
8,-4088,13575
264,-4344,13831
520,-4344,14855
-248,-4345,16135
-1784,-4345,16135
-2552,-5625,16135
-2040,-5369,16647
-248,-4601,17927
264,-4088,18695
-1528,-4345,18439
-2296,-5369,18695
-2296,-5625,19975
-2296,-5625,21255
-2296,-5625,20999
-1784,-5369,21511
-1784,-5625,23559
-2296,-5113,25351
-2552,-5113,25607
-3320,-6649,26375
-3576,-6905,27399
-3064,-6905,29191
-2808,-6393,30215
-2808,-6137,31495
-2552,-6905,-32249
-3320,-7673,-30457
-3320,-7673,-29433
-2296,-7929,-29177
-1528,-7929,-28409
-1528,-8185,-26105
-1528,-8441,-25593
-1784,-8441,-25593
-504,-8953,-25593
-248,-9209,-24569
-1272,-9977,-24057
-1784,-10489,-24825
-1272,-10233,-25337
1288,-9208,-25337
2056,-7928,-26873
1288,-7928,-29433
2312,-7672,32519
3336,-6392,30215
3336,-5112,27143
3592,-4600,23047
2824,-3832,19975
2824,-2552,17415
4104,-1272,14599
4360,-1016,12295
4360,-760,9735
4616,8,8456
4616,8,7176
4872,264,5384
4360,1032,4104
4360,1544,4104
4872,1288,3336
4872,2056,2824
4616,2312,1800
4360,2312,1288
4360,2312,1288
4616,2056,1288
4104,1544,776
3592,1288,264
3848,1288,520
3592,1800,520
4360,2568,776
4872,2568,776
4616,2312,776
4104,2312,1032
3592,2312,1544
3592,2568,2312
4104,2824,2568
4616,2312,2056
4616,2312,2056
4104,2568,2568
3848,2824,3336
4104,2568,3592
3848,2312,3592
3848,2056,3592
3848,2056,3592
3848,1800,4104
3080,1800,4360
3080,1800,4360
3592,1800,4872
3592,1800,5384
3592,1800,5384
3080,1544,5128
3592,1800,5128
4360,1544,5128
4360,1800,5128
4104,1800,5128
4104,1800,5128
3592,1800,5384
3336,2056,5128
3336,1800,4872
3336,1032,4616
3848,1032,4616
3848,1032,4104
3592,1032,4104
3848,1544,3848
3336,2056,4104
3336,1544,3592
3336,1032,2824
3336,776,2568
3848,776,2824
4104,1544,3080
3592,1544,2824
3336,1288,2056
3336,1288,1800
3080,1288,1800
2824,1032,1800
3080,1032,1544
3080,1288,1544
3080,1544,2056
3592,2824,2824
4104,4360,3848
4872,5128,4360
5384,6408,4872
5128,7688,5384
5128,8200,6152
5384,8456,7176
5128,8456,7176
4616,8968,7176
4872,13320,6664
5384,18440,3592
6408,20488,-2296
7687,20744,-6136
8199,20744,-8696
8199,21256,-11512
8199,21256,-12280
8455,20232,-12024
8711,18696,-9976
8455,15624,-8696
7175,12040,-7160
3335,7432,-3576
1031,2824,-1016
1031,-248,-1017
7,-2808,-1273
7,-4088,-1273
7,-4600,-1785
7,-5624,-1785
263,-6904,-3321
263,-6648,-3577
775,-4344,-3321
2055,-3320,-3321
2311,-4344,-3321
1543,-4856,-4089
775,-4856,-3833
519,-4856,-3833
1031,-4600,-4089
1287,-4344,-3577
1287,-4344,-3321
1287,-4088,-2809
1799,-3320,-3321
2311,-3064,-3577
2311,-4344,2311
1032,-7672,9991
776,-12024,24071
-248,-16633,-24313
-248,-22009,-5625
520,-24056,-3321
2824,-22264,28935
8712,-18680,-18937
16391,-10488,-6137
24582,6408,-1528
-31483,24840,-30200
-22267,-21752,-29944
-16635,-5112,-30200
-16379,7688,-29687
-21499,15880,-29687
-29691,14856,-30967
23557,11016,-30711
12805,10760,-24055
8197,7176,10249
7174,-2808,-14072
4614,-16120,12552
2567,-31224,32264
1287,24072,-19448
775,21256,-10488
775,20232,-8184
263,7176,264
-1528,7,4360
-1784,-2809,8455
-1528,-3577,10759
-1272,-4601,11783
-1016,-5369,12295
-1272,-5369,13319
-2296,-5113,14087
-3320,-5625,14343
-3064,-5881,14599
-1784,-5881,15367
-1528,-5625,16135
-2552,-5113,16135
-2552,-4857,16135
-3320,-5881,16647
-3576,-6137,17927
-3832,-5881,18439
-4088,-5625,18695
-4344,-5625,19463
-3320,-5625,20487
-2552,-5625,21255
-3832,-6137,22023
-4344,-6393,22791
-3832,-5881,24583
-4088,-5881,25351
-4088,-5881,25863
-3320,-5625,27143
-4088,-6393,28679
-5112,-6905,29703
-5112,-6905,30471
-5368,-7673,31239
-4856,-7929,-32249
-4856,-7673,-30201
-5368,-8441,-29689
-5624,-9465,-29177
-5624,-9209,-27641
-5112,-9465,-25593
-3576,-8953,-24825
-3064,-8953,-24569
-3576,-10745,-24569
-3576,-11001,-23545
-3576,-10745,-23545
-3320,-11001,-23545
-1528,-11257,-24313
-504,-10745,-24313
-1016,-10489,-25849
-760,-9465,-28153
776,-7928,-30969
2312,-6904,31751
2568,-6648,30727
2056,-6392,24327
1800,-4856,20999
2568,-3832,18695
3080,-3320,16135
3080,-2552,13575
2824,-2552,11527
2824,-2552,9735
3080,-2040,8711
2568,-1016,7175
2824,8,6152
3080,-248,5895
3080,-248,4615
3080,-248,3591
2568,-504,3335
2056,-248,3079
1800,264,3080
2824,8,2056
3080,8,1544
3080,8,1544
3080,264,2312
3080,520,2312
2056,264,2568
2312,264,2312
3080,264,2056
3080,8,2056
2056,520,2824
2312,264,3336
2824,1032,3848
2824,520,4360
2824,8,4104
3080,264,4360
3336,776,4360
3336,1032,4872
3336,1032,5384
3336,264,5640
2824,8,5640
2312,8,6152
2312,264,6408
2824,8,6152
2568,-504,6407
2312,-504,6663
2056,-248,6919
2056,-504,7175
1800,-760,7175
2056,-760,6919
2056,-760,7431
2056,-504,7687
2568,-504,7943
2824,-760,7431
2568,-504,6919
2312,264,6920
2312,8,7176
3080,-504,6919
2824,-504,6663
1800,-248,6407
2568,-248,6151
2824,8,6408
2824,-760,5639
3336,-1016,5127
2568,-504,5127
1800,-760,5639
2056,-1016,5383
2056,-760,5383
2824,-504,5127
3592,-504,4871
2824,-504,4871
2568,-760,4615
2312,-1528,4871
2312,-1528,5127
2568,-504,4615
2824,-248,4103
2568,8,4104
2824,264,4616
2312,520,5128
2312,1032,5128
2824,2312,6920
2824,3336,8200
2824,4616,8968
3080,5640,8712
3336,5896,8968
3848,5128,9992
3848,5128,11016
3848,8968,11272
3848,14344,9992
4616,18184,5128
5896,18696,264
6408,18184,-2808
5895,19208,-6136
6919,20232,-8440
8199,19208,-8440
7943,16648,-7416
7175,14344,-5368
6407,11528,-4088
4359,7944,-1784
2823,3592,1800
776,-1272,3335
-1272,-4089,3335
-1528,-5625,3591
-1016,-7673,2567
-1272,-8697,1543
-504,-8697,1031
-504,-8697,775
-760,-8441,1031
-1016,-8185,1031
-1016,-8441,1031
-1272,-8185,1031
264,-7928,1031
1288,-7672,775
1288,-7672,775
-248,-7673,775
8,-6648,775
1288,-6392,1031
1288,-6392,2055
520,-6392,2055
520,-6904,4103
264,-8440,9479
520,-13048,21767
264,-17912,-26617
-1528,-22265,-8697
-1528,-25593,5127
1545,-24824,-12537
6408,-22520,7687
12296,-17656,23559
19207,-4344,26631
22278,264,7432
-25082,29704,-29688
-18171,-18168,-29688
-16379,-4856,-31480
-17403,6664,-29687
-24059,9224,-29175
27397,4360,-30711
13573,4360,-27895
8197,3592,1545
5382,-8184,-18936
2822,-20984,12040
1799,-31992,32264
519,23048,-17400
263,17928,-7416
7,14600,-760
-1529,6663,3080
-1528,-249,7431
-1272,-4345,11783
-1784,-7417,15111
-2296,-7673,15879
-2808,-7929,16135
-3064,-8185,17671
-3320,-6905,18695
-3320,-6905,18439
-3576,-7929,18439
-3832,-8441,18439
-3576,-8185,19719
-3064,-8185,20487
-2552,-6905,20487
-2552,-6393,20231
-3576,-7417,20999
-4344,-8185,22535
-4344,-8697,22791
-4344,-8697,22791
-3832,-8697,23303
-3576,-8953,24839
-4344,-8697,25607
-4856,-8185,25863
-5368,-8185,26375
-5368,-8441,27655
-4856,-9465,28167
-5112,-9977,29447
-4856,-9721,30215
-4856,-9465,31239
-5368,-9209,-32761
-5368,-9465,-32249
-5112,-9977,-31225
-5368,-10745,-29689
-5112,-11001,-28921
-4600,-10489,-28153
-4088,-10489,-28153
-4088,-11769,-26873
-4600,-12537,-25849
-4856,-13305,-25849
-4600,-13305,-26105
-3576,-13049,-25593
-2296,-12281,-25081
-2296,-12537,-25337
-2040,-12281,-25849
-1272,-12281,-26617
-248,-13049,-28153
-248,-13561,-29177
1032,-12792,-31481
2056,-11256,30727
2312,-10488,28423
2568,-10488,25351
2824,-8952,22279
2824,-7928,20231
2824,-8184,18183
2824,-8184,15879
3080,-6392,14087
3080,-5368,12295
3336,-4600,10759
3336,-4856,9991
3080,-5368,8967
2568,-5624,8199
2312,-5112,7175
2056,-4344,6663
2568,-3832,6407
3080,-3576,6151
2568,-4344,5639
2824,-4344,5383
2824,-3576,4615
2312,-3576,4103
2568,-3576,4103
2568,-3832,4103
2568,-4600,4615
2312,-4600,5127
2568,-3320,5127
2824,-2552,5127
2824,-2296,5127
2568,-3320,4871
2056,-4088,4871
1544,-4600,5127
2056,-3832,6151
2056,-3064,6663
2056,-3064,6663
2056,-3320,6151
1288,-4344,5895
1544,-4856,6407
1544,-5112,7175
2312,-4856,8199
2824,-4856,8199
2824,-4088,7431
2312,-4344,7687
1800,-4344,7687
1544,-4344,7431
2568,-4344,7943
2824,-4344,8711
2824,-4856,8455
2312,-5368,8199
2056,-4344,8199
2312,-4344,8199
1800,-5112,7943
1544,-4856,7943
1800,-5112,7943
1544,-4856,8199
3592,-3576,8199
4360,-2808,7687
2312,-3576,7431
2056,-4856,7431
1544,-5624,6919
776,-5112,6407
2056,-5112,5383
2312,-5112,5639
2312,-5112,5639
2568,-4344,5383
1288,-4600,5383
1288,-4856,5639
2312,-4600,5639
2056,-5624,5127
1288,-6648,4359
1288,-5880,4359
2056,-4856,4359
2312,-4600,4871
2056,-4344,4871
1800,-4344,3847
1544,-4344,3335
1544,-4600,3591
1288,-4600,3847
1288,-4600,3591
1288,-4856,3847
1288,-5112,4103
1288,-5368,3335
520,-5368,2823
264,-4344,3591
1544,-3576,4103
1800,-2296,5127
1800,-1272,5895
2056,-1272,6407
2312,-1272,6663
2312,776,8200
2056,776,8712
2312,1544,8712
3080,4104,8968
3336,8200,8712
4360,13832,5128
4872,17160,-504
4871,17160,-4600
6151,17416,-8184
6151,16392,-9976
5383,15112,-10744
6151,14856,-10488
6151,11528,-8184
6151,7176,-6648
3847,4360,-3320
263,1032,264
-760,-2809,263
-1528,-7161,7
-2040,-10233,1543
-2040,-11257,519
-1784,-11257,-505
-1529,-12025,-1017
-1017,-11769,-1529
-1273,-11769,-1785
-1273,-11769,-2041
-1017,-11513,-1785
-1273,-11513,-1785
-1017,-11769,-2041
-761,-10233,-2041
-249,-9721,-2297
7,-9464,-2297
-249,-9465,-2041
-249,-9721,-2041
7,-9720,-1273
-249,-9465,-1273
-249,-8953,519
-248,-9465,6663
-1016,-14841,18183
-2552,-22521,-30969
-4088,-28665,-13817
-3320,-31481,1543
-247,-29177,-9465
2568,-28152,17671
7432,-24056,-26361
15623,-9464,-17145
24582,8968,-8440
-31995,27400,-29176
-25083,-20216,-29176
-22523,-3320,-30200
-21755,2312,-30455
-31739,16136,-29687
20997,12296,-30967
9733,13064,-27639
4869,10760,-1783
3077,-4856,-23800
1030,-21496,7944
-505,30215,29192
-505,20743,-20216
-761,15623,-11256
-1529,9735,-4600
-1785,2567,8
-2040,-2553,3591
-3576,-7161,7943
-3320,-11001,10247
-2552,-11257,11783
-2808,-9209,12551
-3320,-9465,12551
-3320,-10489,13063
-3576,-10745,13063
-4088,-10745,13831
-3832,-9721,14599
-2552,-9721,14599
-3064,-10233,15111
-4088,-10745,15367
-4344,-10489,15111
-4856,-10489,15879
-4600,-10489,16647
-4344,-10233,17159
-6136,-9977,17671
-5880,-10233,17927
-3832,-10233,18183
-3576,-10489,18951
-5112,-11257,19463
-5880,-11513,19463
-5880,-10489,20743
-5368,-9977,21767
-4600,-9721,21767
-4600,-9977,22279
-5112,-10233,23559
-5368,-10489,24327
-5368,-11257,24583
-5368,-12281,25351
-5368,-12537,26887
-5112,-12537,27911
-5112,-12793,27911
-4344,-13049,28423
-4600,-13049,29703
-5112,-13817,30727
-4600,-14329,30983
-4344,-14585,30727
-4088,-15353,32007
-3832,-15865,32519
-3320,-16121,32519
-3320,-16121,32263
-2808,-15865,31239
-1272,-14585,30983
-504,-14585,29959
-1016,-14841,27655
-1528,-14585,24583
-1528,-14585,22535
-760,-13561,20743
-248,-12281,17927
520,-10744,14855
1032,-9976,13063
776,-9976,11271
264,-8440,9479
264,-6904,7687
520,-6392,6407
1032,-6392,5383
776,-6648,4615
520,-5624,3335
-504,-5113,2823
-760,-5369,2823
264,-5112,2567
520,-4344,1799
520,-3832,1287
776,-3832,1543
520,-3576,1031
520,-3320,519
264,-3576,-249
-505,-3577,-505
-1273,-3577,-249
-1273,-3577,7
-504,-3577,-249
-505,-3577,7
-504,-3833,7
-248,-4089,263
-248,-4089,263
-248,-3577,519
-248,-3065,775
-760,-3065,1543
-1272,-3321,1543
-1272,-3577,1543
8,-3576,1543
264,-3320,2311
-248,-2809,3079
-248,-2809,3335
-1016,-3065,3335
-1016,-3577,3079
-248,-3577,3079
776,-2808,3847
-248,-2809,4103
-504,-3065,4103
-504,-3321,3847
-504,-3833,3847
-248,-3833,4103
8,-3832,4615
264,-3576,4615
-248,-3321,4359
-504,-3833,4615
8,-3576,4871
264,-3064,4615
8,-3064,4615
8,-3320,4615
264,-3064,4871
8,-3064,4615
264,-2808,4615
520,-2296,4871
264,-2552,4615
-760,-3065,4103
-1016,-3321,4103
-1016,-3321,4359
-760,-3321,3847
-760,-2297,3335
-760,-2041,3335
-1016,-2297,3335
-760,-2041,3079
-504,-2297,2823
-504,-2553,3079
-504,-2041,3079
-504,-1785,3079
-1528,-2041,3079
-1784,-2041,2823
-1016,-1785,2567
-504,-2041,2311
-504,-2041,2567
-504,-1785,2311
-1016,-1529,2055
-1016,-761,3335
-248,775,4616
8,2568,5128
264,4104,5384
520,4616,6152
776,4616,6664
520,5128,7944
264,5640,7944
-248,7431,7688
520,11016,7432
1800,16392,3592
2312,18184,1544
2312,18696,-5112
2055,18952,-7672
3079,19464,-11000
4103,18696,-12280
4359,17672,-11000
3847,15624,-8440
3591,12552,-7160
2823,9736,-4856
775,5384,-1528
-1273,7,520
-3320,-2809,775
-3832,-4601,775
-3576,-6649,-505
-3321,-8441,-1017
-4089,-8697,-1017
-3577,-7929,-1017
-2809,-7929,-1273
-2297,-7929,-2297
-2041,-7417,-2297
-3321,-7161,-2297
-3577,-7161,-2297
-2809,-6649,-1785
-2553,-6393,-2041
-2553,-6137,-2041
-2297,-5625,-2297
-2297,-5881,-2553
-2553,-6137,-1785
-2553,-5881,-1529
-2809,-5881,519
-3064,-7673,6151
-3064,-11769,17159
-3576,-17145,-31737
-4088,-22009,-14585
-4088,-25849,1031
-2295,-26361,-10745
1032,-25336,13831
6664,-20216,32007
13575,-6392,-26873
22790,12296,-16376
-32763,32008,-30456
-25851,-14328,-29176
-23803,2056,-30967
-24059,16904,-29687
-30203,20744,-29943
24837,16392,-30455
12549,16136,-29943
4869,15880,-10999
3077,5896,29449
1798,-8440,-1016
518,-12024,6920
-761,30471,-24312
-1529,21767,-13048
-2041,16647,-5624
-3577,9223,-248
-4089,2567,3592
-4088,-2553,8455
-5112,-7161,12039
-6392,-7929,14087
-6648,-7673,14087
-6136,-8185,14599
-5368,-8441,15879
-5368,-8441,16391
-6392,-8697,16647
-6392,-7673,17159
-5624,-7673,17671
-5368,-7929,18695
-6136,-8185,18439
-7416,-7929,18439
-7160,-8185,19207
-6648,-8441,20487
-5880,-8185,20999
-6136,-7673,20999
-7416,-7929,22279
-8184,-8697,23303
-8440,-9465,23559
-8184,-9465,23815
-7672,-8697,24071
-7416,-8185,26631
-7416,-8441,28423
-7160,-8953,28679
-7160,-8697,28423
-7928,-8953,30215
-8184,-9721,32263
-8440,-10233,-32505
-8696,-9977,-31737
-7672,-9465,-30201
-7672,-10489,-28409
-8440,-11257,-27385
-8184,-11513,-27385
-8184,-12281,-26361
-7928,-12025,-24313
-7416,-12025,-23545
-7416,-13049,-23801
-7416,-13305,-23545
-6904,-12793,-23033
-6136,-12537,-22521
-5368,-12793,-22777
-5112,-12793,-23033
-5112,-13049,-24057
-5368,-13049,-25081
-3832,-11513,-28153
-2808,-11001,-30457
-2040,-9721,32263
-1784,-8441,28679
-1784,-7673,25351
-2040,-7161,22791
-2040,-6137,20487
-1784,-5113,17159
8,-4088,14343
776,-3576,13319
-1272,-3321,12551
-2296,-2553,11015
-2040,-2041,9223
-248,-2041,8199
8,-2296,7687
-1784,-2041,6919
-2552,-2041,5639
-1784,-1529,5383
-248,-1273,5383
520,-760,5127
-504,-761,4359
-1528,-1017,3847
-248,-761,3847
8,-248,3847
8,8,4104
-760,-505,4103
-1272,-761,4103
-1272,-1017,4615
-1016,-1017,4871
-760,263,4872
-504,263,4872
8,8,5640
264,264,6152
776,520,6152
264,-248,6407
-760,-761,6919
-1528,-761,7175
-1784,-1017,7175
-1016,-761,7687
8,-504,7943
-248,-1017,7943
-504,-1273,7943
-248,-1017,8455
264,-248,8711
-504,7,9224
-504,-249,9479
-760,-249,9479
-1784,7,10248
-1528,-505,9991
-1272,-505,9991
-1272,-505,9991
-1784,-505,10247
-1016,-1017,9479
8,-1272,8967
-248,-1529,9223
-1272,-1273,9479
-1016,-1273,8967
-1272,-1273,8711
-1528,-1273,8199
-504,-1273,8199
-248,-1785,8455
-1528,-1529,8711
-1272,-1273,8455
-1016,-1529,8199
-1016,-1529,7687
-1016,-1785,7175
-1272,-2041,7175
-1272,-2041,7175
-1784,-2297,7175
-2040,-2297,6919
-2040,-2041,6151
-1272,-2041,6407
-1016,-1273,7687
-1528,7,8200
-2040,519,8200
-1528,775,8456
-1528,2311,10248
264,4872,11528
1032,6152,11528
-248,4871,11784
8,4104,11784
264,5640,10760
264,10248,10504
8,15624,7944
-248,17415,2312
1032,17672,-2040
3335,17416,-5368
3847,17672,-7160
3591,17672,-7928
3847,16648,-7672
3335,14344,-5368
3335,11784,-3832
2567,8712,-1016
-1273,3847,1800
-4344,-2297,2567
-4344,-4857,3335
-4856,-5369,4615
-5368,-6905,3335
-5112,-9465,1799
-4344,-9977,1799
-3064,-9465,1031
-2296,-8185,775
-2296,-7929,7
-3064,-7929,-249
-2809,-7673,7
-3064,-7161,-249
-3577,-7161,263
-3064,-6905,519
-2808,-6649,263
-2552,-6393,7
-2040,-6393,7
-2040,-6393,1287
-2808,-6137,1287
-3064,-5369,1543
-2808,-6393,5895
-2552,-10233,14599
-2808,-15609,30471
-3832,-19193,-18425
-4088,-23545,-1785
-2552,-26361,-1785
776,-25080,27911
4616,-21240,-19705
11527,-10488,-8697
21254,7176,-3832
24837,12040,-18936
-26107,-21752,-29176
-22779,-4600,-30712
-22011,8968,-30967
-25083,16392,-30199
30213,13576,-30199
16901,10504,-30199
7941,11784,-20471
5637,6152,17673
3334,-5624,-6648
518,-18168,18696
-1017,-32505,-26872
-1017,23047,-14584
-1529,18695,-6136
-3321,12295,1032
-5112,3591,4360
-5112,-2809,8455
-5368,-5369,12807
-5112,-5881,16391
-5112,-6137,16903
-5368,-7673,16903
-5368,-8185,17671
-5368,-7161,18695
-5624,-7417,19207
-5368,-7417,19719
-5624,-7417,20487
-5880,-7161,20743
-5880,-7161,20999
-5624,-7161,20999
-5880,-7929,22023
-6904,-8697,23303
-7160,-8441,23303
-6904,-7417,23815
-6904,-7673,24071
-6392,-8185,25351
-6648,-7929,26119
-6904,-8185,26631
-7416,-8185,27399
-8696,-8185,29191
-8696,-7929,30727
-7672,-8441,30727
-7416,-9209,31239
-7928,-9465,-32761
-7928,-8953,-31225
-8184,-8697,-30201
-8440,-8953,-28921
-8184,-9721,-27129
-8184,-10233,-25081
-8184,-10745,-24057
-8184,-11257,-23545
-7928,-11257,-22777
-7160,-11769,-20985
-7160,-12025,-20473
-7160,-12025,-20729
-6136,-12025,-19705
-5112,-12025,-18425
-5624,-12281,-18681
-6136,-12281,-18937
-5368,-12025,-19449
-4600,-12281,-20217
-3320,-12025,-22009
-2552,-11001,-24313
-2552,-9977,-27385
-2040,-9465,-30201
-2040,-8953,32263
-1272,-6905,28679
8,-5368,25095
-504,-5369,22791
-760,-5113,20231
-504,-4345,17415
-504,-3321,15367
-504,-3065,14087
-760,-2553,12807
-504,-2809,11271
-504,-2553,9479
-760,-2297,9223
-1016,-2041,8711
-1016,-1785,7943
-1272,-1273,7175
-760,-1273,7175
-760,-1273,6919
-760,-1785,6663
-504,-1785,6407
-760,-1529,6151
-1016,-1273,6151
-1784,-1273,6151
-1784,-1017,6407
-1528,-1529,6151
-1272,-1785,6407
-760,-505,6919
-1016,-505,6919
-1272,-505,6919
-1016,-1017,7175
-1272,-1273,7687
-1016,-1017,7943
-760,-505,8199
-1528,-761,8711
-760,-1273,8455
-504,-1785,8967
-1016,-1785,8967
-1272,-1017,9223
-1016,-761,9991
-760,-761,10503
-760,-1017,10759
-1016,-1273,10759
-1016,-1017,10503
-1016,-1017,11015
-760,-2041,11271
-1016,-2809,11015
-1528,-2809,11015
-1272,-2809,10247
-1016,-2809,10759
-2040,-2553,11015
-2040,-2553,11271
-1784,-2297,11271
-1528,-2297,10503
-1272,-2809,10503
-1272,-3065,10759
-1272,-3065,10247
-1528,-2553,9991
-1528,-2553,9479
-1528,-3065,9479
-1784,-2553,9223
-1784,-2297,8967
-1784,-2809,8967
-1272,-3321,9735
-1272,-3577,9735
-1784,-3321,9223
-2040,-2809,7943
-1784,-2809,7943
-1528,-3065,8455
-1272,-2809,8455
-2808,-2553,8199
-2808,-2553,8199
-2040,-2553,8455
-2040,-3065,7943
-2040,-3321,7687
-1784,-3321,7687
-2296,-2041,8967
-2552,7,10248
-2552,7,10248
-1784,263,10760
-1016,2567,11528
-1016,3591,12040
-1272,3591,12808
-1528,3079,12808
-1528,5383,13064
-1016,9991,13064
-760,14343,9480
1288,15880,2824
1800,15624,1544
1800,16392,-2552
1799,16392,-5368
2567,16392,-7160
3591,16392,-6392
3847,13832,-3576
3335,9736,-2040
1287,6664,-760
-1785,2567,2312
-3576,-2553,4871
-5624,-5625,5639
-5880,-7673,5127
-5880,-9209,3079
-6648,-10489,3079
-5880,-11513,2823
-4600,-11257,2055
-4600,-9977,2055
-4600,-9977,2055
-4856,-10233,1799
-5624,-9977,1799
-4344,-9209,1543
-4088,-8953,1287
-4088,-8953,1799
-3832,-8697,2055
-3832,-8697,2311
-3832,-8697,1799
-3576,-8441,2311
-3832,-8185,2311
-3832,-8953,4103
-4088,-10745,8199
-5112,-13049,15367
-5112,-16889,30727
-5880,-22009,-16633
-6904,-27897,1031
-5367,-29945,4103
-2807,-27897,-32761
1800,-24568,-14585
10503,-14584,-3833
19206,1288,-1528
27909,18952,-30968
-27899,-27384,-29688
-22011,-11512,-29944
-22267,776,-29943
-27387,8456,-29687
28421,5896,-30711
15877,2824,-30967
5637,3592,-18679
1541,-760,19208
262,-11256,-5368
-1274,-23033,20232
-2297,-28153,26632
-3833,19207,-12280
-5369,15367,-4344
-6137,9479,2056
-6392,1031,6408
-6904,-4345,10759
-7160,-6905,14087
-6904,-8441,16647
-7160,-9209,17927
-7928,-10233,18183
-8952,-9977,18951
-8696,-9721,19463
-7160,-9721,19975
-7928,-9977,20743
-8696,-10233,20743
-8696,-10489,20999
-9976,-10489,22023
-9976,-10489,22023
-8696,-9977,22279
-8952,-10233,23303
-9208,-10233,23815
-8696,-10233,23815
-9720,-10233,24839
-10232,-10233,25863
-9976,-10233,26375
-9720,-10233,26631
-9464,-10233,27655
-9208,-10233,28167
-10232,-9977,29959
-10488,-10233,31495
-10488,-10745,31751
-10488,-10745,32519
-10488,-10745,-31225
-11256,-10745,-29689
-11000,-11257,-29433
-10488,-11769,-28153
-10744,-11769,-26361
-11000,-12281,-25081
-11000,-13049,-24057
-11000,-13561,-23545
-10232,-13305,-22521
-9464,-13305,-21497
-9720,-14073,-21241
-9720,-14585,-21241
-9464,-14585,-20729
-8952,-14585,-20217
-8184,-14585,-19961
-7160,-14585,-20985
-7160,-14073,-21753
-7416,-13817,-22777
-6392,-14073,-23801
-3832,-13049,-28153
-4088,-12281,-29945
-3832,-11001,32263
-3832,-9465,28679
-3832,-8953,25863
-2552,-8441,23559
-1784,-7673,20999
-2552,-6393,18439
-2808,-6137,15879
-2808,-6137,14343
-3064,-5625,13319
-3064,-4857,12039
-3064,-5113,10759
-2296,-4601,9479
-2296,-4089,9479
-2552,-3321,9223
-2296,-3321,8455
-2552,-3833,8199
-2808,-4345,7687
-2808,-3833,7431
-2552,-3577,7175
-2040,-3577,6663
-2040,-3065,7175
-2296,-2809,6919
-2552,-3577,6919
-3832,-4345,6919
-3832,-3833,7175
-3832,-3577,7175
-3320,-3321,7687
-2552,-3321,7943
-2552,-3321,8199
-3064,-3065,8455
-2808,-3321,8711
-3064,-3577,8967
-2808,-3577,8967
-2808,-3833,8967
-3064,-3833,9735
-3064,-3577,10247
-3064,-3833,10247
-760,-4345,10759
520,-3576,12807
-248,-1017,14599
520,4104,15112
2568,11528,14856
3336,17928,16904
4104,25864,23304
5896,-27384,-31736
7432,-13048,-17912
8456,3080,-4599
8456,8200,-759
8712,-31736,24073
8457,-17400,-30199
8457,-5112,-26359
7433,7944,-30966
5897,22280,28426
5641,28680,23306
5641,28680,4618
3849,27912,30730
2312,27144,-15350
4103,28168,6154
5895,28680,-30966
6662,27912,7946
7174,28168,-1782
7173,27656,-758
6661,28424,266
4102,25864,5898
-2810,7,18954
-9722,27911,28937
-10746,-7161,-23288
-11002,26375,1288
-11001,7,25608
-9721,-19193,-24825
-8441,32007,-14585
-8697,24839,-8441
-8953,23815,-6649
-9209,21255,-4857
-9209,18695,-4857
-9977,17415,-4857
-9721,17159,-4089
-9465,17159,-3833
-9721,16391,-3065
-9209,15367,-3065
-9209,14599,-2553
-9209,14343,-1529
-8697,14599,-505
-8697,13575,263
-8440,12295,1031
-8696,10759,1543
-9208,10759,2567
-8440,13831,2311
-7160,16135,-2297
-5881,16135,-9721
-5113,14343,-14329
-5113,12551,-16633
-5113,10759,-18169
-5113,7687,-18937
-4857,3847,-17657
-4857,-249,-14586
-4857,-5113,-12282
-4857,-6905,-12026
-7929,-17657,-6650
-9209,-24057,-3578
-11001,-28153,-3066
-12025,-32249,-2810
-11257,29447,-3322
-9977,27911,-3578
-9209,27143,-3066
-9465,26375,-2554
-9465,26119,-1530
-8441,26375,-250
-6649,28423,1030
-5880,31751,2822
-5624,-32249,4614
-6136,-31225,5894
-6904,-27641,8454
-6904,-22777,10758
-5880,-18681,12806
-4344,-15353,14854
-4344,-10233,17414
-4344,-2809,18694
-3832,3591,19463
-3576,8455,20743
-3064,13575,20999
-3320,19719,20999
-3832,21767,20743
-4088,28935,20231
-3320,32519,19975
-2808,-28153,19463
-2808,-24313,18951
-3064,-22009,18439
-3064,-20729,18183
-2808,-18425,18439
-2808,-16889,18439
-2808,-16121,17927
-2808,-15097,17415
-2552,-13817,17415
-1784,-12793,17415
-1784,-12537,17415
-1784,-12281,17415
-2552,-11769,18183
-2552,-11513,18695
-2296,-11257,18439
-3064,-11257,17927
-2552,-11001,17927
-1528,-10745,18183
-1528,-10745,18439
-1016,-10489,18183
-1272,-10233,18183
-2040,-10233,17927
-2296,-11001,17927
-2296,-12025,17927
-1528,-12025,17927
-1272,-10745,17927
-1528,-10745,17927
-1272,-10745,17927
-1528,-10489,17927
-1784,-10233,17927
-1016,-9465,17415
-504,-9465,16647
-760,-9465,16647
-1528,-8953,16647
-1528,-8953,16135
-1784,-9721,15367
-1784,-9721,15111
-1528,-9721,15111
-1784,-8441,15111
-1784,-7673,14855
-1784,-7673,14343
-1528,-7417,13831
-1528,-7673,13831
-2040,-7929,13575
-2296,-7929,13063
-1784,-8185,12295
-1784,-8441,11783
-1784,-8185,11783
-1272,-6649,11271
-1272,-6393,11271
-1528,-6137,10759
-1528,-6137,10247
-1528,-6393,10247
-760,-6393,10247
-1016,-6393,9991
-1272,-6137,8967
-1016,-5881,8967
-2040,-6137,9223
-1784,-6393,9223
-1528,-6137,9223
-1784,-6137,9223
-1784,-6137,8711
-1784,-6137,7687
-2040,-6393,7175
-1784,-6393,7431
-1528,-6393,7687
-2040,-6393,7687
-2296,-6137,7431
-1528,-5369,7431
-1272,-5369,7431
-2296,-6905,7431
-2552,-7417,7175
-2296,-7417,7175
-1272,-6137,7175
-1016,-5881,6407
-760,-6137,5895
-1272,-6137,5895
-2552,-5881,5639
-2552,-5881,5895
-1272,-5881,5895
-1272,-6137,5639
-1272,-6137,5639
-1272,-5881,5895
-1784,-6137,5895
-2040,-6905,5127
-2040,-7161,5383
-2808,-6905,5383
-2808,-7161,5127
-2552,-7417,5127
-2552,-7161,5127
-2040,-6649,4615
-1272,-6137,4359
-1528,-6137,4359
-1784,-5625,4615
-2552,-6137,4615
-3064,-6905,4615
-2808,-7161,4359
-2808,-6905,4359
-2808,-6905,4359
-2040,-6649,4615
-2808,-6393,4615
-3320,-6137,4615
-3832,-6649,4103
-3064,-7673,4359
-1528,-6137,4103
-1784,-5625,3847
-1528,-5881,3847
-2040,-6137,3079
-3064,-6137,3079
-3064,-6137,3079
-2808,-6649,3591
-3064,-7929,3847
-3064,-7673,3591
-3064,-7417,2567
-2296,-7673,2567
-1528,-6905,3591
-1784,-6649,3847
-3064,-7161,4103
-3064,-7417,3847
-2552,-7417,3335
-2040,-6137,2823
-1784,-5625,2567
-2040,-5625,2823
-2296,-6137,3079
-2040,-6905,2823
-2552,-6649,2567
-2552,-6393,2823
-2808,-6393,3847
-2808,-6393,3335
-1784,-5881,3079
-1528,-5113,3079
-1528,-5625,3079
-2296,-6905,3079
-2552,-7417,2823
-2552,-7673,2567
-2552,-6905,2567
-2040,-5625,2311
-1528,-5881,2311
-1528,-5625,2311
-2040,-5881,2311
-2296,-5625,2311
-2040,-5881,2311
-3064,-7929,2311
-4088,-8185,3335
-3064,-6905,3591
-1528,-6393,2311
-1016,-6649,1799
-1272,-6137,1799
-1784,-6137,2055
-2040,-6137,2567
-2040,-5625,2823
-2040,-4601,2823
-1272,-3577,3079
-760,-3065,4359
-1272,-2553,6151
8,-504,6407
520,776,5896
8,1032,6664
8,1032,7688
264,2824,8712
264,5896,9224
2312,11016,8712
3848,16136,4104
4104,17416,-2296
3847,16904,-5880
3847,16904,-8440
4615,16648,-9976
5127,15624,-9720
5383,14600,-8952
5127,11784,-7416
3335,6920,-5880
263,2568,-2552
-249,1799,-1784
-2809,-5113,-249
-2809,-7673,7
-2296,-9209,519
-1784,-11513,-761
-1785,-12793,-1273
-3065,-13305,-1273
-3833,-13305,-1785
-2809,-12025,-2041
-2553,-11001,-2297
-2297,-10745,-2297
-2553,-10745,-2297
-2809,-10489,-2809
-2553,-10489,-2809
-1785,-10233,-3833
-1785,-11001,-2809
-2297,-10489,-2041
-2297,-10745,-1017
-3065,-11769,2823
-4088,-15097,11271
-3576,-20217,25351
-3576,-24569,-22777
-3576,-28921,-4601
-3064,-30713,-761
-1016,-29177,-31225
520,-29176,22023
10248,-17144,8967
17927,520,11016
26886,19208,-25848
-30203,-27640,-29176
-25851,-11256,-29432
-25595,5384,-30711
32517,14600,-29687
21509,11784,-29687
11781,12808,-30199
4869,13320,-14071
773,264,25097
-762,-17145,-1528
-1018,-31225,22280
-249,22023,-26616
-2041,14855,-16120
-4857,9479,-7672
-5369,1543,-1272
-5625,-4345,775
-5368,-7673,4103
-5880,-10489,8199
-7416,-12537,10503
-7416,-12281,11015
-6392,-12281,10759
-5880,-12537,10759
-6392,-12537,11783
-6904,-11257,13575
-6904,-11001,13319
-6392,-11769,13575
-6648,-13049,14087
-7160,-13049,14343
-8184,-12281,14599
-7928,-11513,13831
-6136,-11257,13831
-5880,-12281,14599
-7416,-13305,15623
-8184,-13049,16135
-8440,-12537,15879
-7416,-12537,15879
-6648,-12537,16903
-7416,-12537,17415
-7928,-13049,17159
-8184,-13049,17671
-8184,-12793,18695
-7160,-12537,19207
-7416,-13561,19719
-7928,-14585,20743
-7672,-14585,21511
-7672,-14585,22535
-8184,-14329,23559
-7928,-14585,23559
-7160,-15609,24839
-7160,-16377,26119
-7160,-17145,27399
-7160,-17913,27655
-6904,-19193,28679
-5368,-19193,29447
-4856,-18937,29959
-4856,-19449,29959
-3576,-19449,30215
-2552,-19449,30471
-2808,-19961,30727
-3320,-21241,30215
-3064,-20985,29703
-1272,-19705,29191
264,-19192,27399
520,-19192,25863
-760,-19193,24327
-1272,-18937,21767
-248,-17145,18951
264,-14840,16647
264,-13560,14087
520,-13048,11271
1032,-11768,9991
1288,-10744,8967
1032,-10232,8199
1288,-10232,5383
1032,-10232,3847
264,-8952,3079
8,-7416,3079
8,-7416,2311
776,-7160,1543
520,-7160,1031
776,-7160,7
776,-6392,7
-248,-6649,263
-248,-6905,-1017
7,-6648,-1273
263,-6648,-1529
263,-6136,-1529
7,-6136,-1017
-249,-6905,-1273
7,-6904,-1529
263,-5880,-1017
263,-5368,-761
-505,-5881,-1017
-505,-6905,-1273
-505,-6649,-1273
-1529,-6393,-505
-1273,-6393,263
-1272,-6137,519
-1528,-6393,519
-760,-6137,519
-504,-6137,263
-504,-6137,519
-504,-6393,1799
-1016,-6137,2055
-1272,-6137,2055
-1272,-6393,2311
-760,-6393,2567
-248,-6137,3079
-504,-5881,3335
-248,-6393,3335
-760,-6905,3335
-1016,-6393,3591
-1272,-5881,4103
-1528,-5625,3847
-1272,-5625,4103
-1272,-6137,4103
-1272,-5881,3591
-760,-5625,3591
8,-5112,3591
-1272,-5369,3847
-2552,-6137,3591
-2040,-6393,3079
-1272,-6137,2567
-1528,-5881,2311
-1528,-5881,2567
-1272,-5625,2823
-1528,-5625,2567
-1784,-5625,1799
-1784,-5881,1543
-2040,-6137,1287
-2040,-5881,1031
-2040,-5881,1287
-1784,-5625,1543
-1528,-5113,775
-1528,-5113,7
-1528,-5113,263
-1784,-5113,263
-2296,-5113,263
-2552,-5113,519
-2552,-5369,7
-2552,-6137,-761
-2809,-5881,-761
-2809,-5625,-505
-2553,-5625,-505
-2553,-5625,-1017
-2553,-5113,-1017
-3065,-5113,-761
-3065,-4857,-505
-3577,-4857,-505
-2809,-3321,7
-2552,-2297,775
-2296,-1529,1543
-2040,-761,2311
-2040,519,2312
-2040,1799,3336
-2040,1543,4616
-1784,1543,5128
-1784,2823,5384
-2552,6151,5128
-504,12039,3336
1800,17416,-2296
1543,17160,-7928
519,15112,-11256
-249,15623,-13816
-249,15623,-14840
1543,15624,-14840
2311,14088,-12536
1799,10504,-10232
1287,7944,-8696
-761,4871,-5368
-3065,263,-2296
-4089,-4345,-2553
-4345,-5625,-2553
-4345,-7929,-2809
-4601,-9721,-3833
-5113,-11513,-4089
-5113,-11257,-4345
-5369,-9977,-4857
-4601,-8953,-4857
-4345,-8697,-5369
-4345,-9209,-5369
-4345,-8953,-5369
-3833,-8441,-5369
-3065,-7161,-5369
-1529,-6137,-5369
-2553,-7417,-5113
-4345,-8185,-4857
-4345,-8185,-5113
-3833,-7673,-5113
-3833,-6905,-4601
-3833,-7161,-761
-3833,-9465,5127
-4600,-14585,16391
-5880,-19961,-31993
-5880,-26105,-14329
-4856,-30201,-249
-2808,-28921,-17657
-1528,-28153,-27641
5896,-20472,25095
13831,-4600,30471
23558,14344,-19448
31493,-31992,-30456
-28411,-13560,-29176
-26107,3592,-29943
-27899,17928,-29431
30725,19464,-30455
18949,17160,-30455
7685,18696,-27895
2309,15112,-5367
773,2312,-28919
-250,-12537,3336
-2041,-29177,25608
-3833,23815,-23544
-3833,18695,-14584
-4089,13319,-6648
-5113,5127,-1528
-6393,-1785,1799
-6392,-6393,5895
-6392,-8185,8711
-6648,-7929,10759
-7160,-8441,10759
-7160,-8953,10759
-7672,-9209,12039
-8696,-8953,12551
-7672,-8697,13063
-6392,-8441,13063
-6904,-8697,13319
-7416,-8697,13831
-7672,-8697,14087
-7672,-8953,14087
-7672,-8697,14599
-7672,-8441,15623
-7672,-8185,15879
-7672,-7673,15879
-8184,-7673,17159
-8184,-8185,17927
-7928,-8441,18439
-7928,-8441,18183
-8184,-8697,19207
-8440,-8953,20999
-8696,-8953,21511
-8440,-8953,21511
-8184,-8953,22535
-8696,-9209,24071
-8440,-9209,25351
-8696,-9209,25351
-8696,-9721,26631
-8440,-9977,28423
-8440,-10233,29703
-8952,-10745,30215
-9208,-12281,30471
-8952,-12793,31751
-8696,-13049,-32249
-8952,-12793,-32249
-9208,-13049,-31993
-8440,-13561,-31993
-7416,-13561,-31225
-7416,-13561,-30969
-7160,-13561,-30969
-5112,-12537,-31737
-4344,-12281,-32505
-5112,-12025,32007
-4856,-11769,29959
-4088,-11513,27143
-3576,-10745,24327
-3320,-9209,21511
-3064,-7929,18951
-2808,-7417,15879
-2808,-6649,13063
-2296,-5369,11271
-1784,-3833,9735
-2040,-3577,7943
-2296,-3833,6919
-1784,-3065,4615
-1784,-2553,4103
-2296,-2809,3079
-2808,-2553,1799
-2808,-2553,1543
-3576,-2297,1543
-3320,-2297,519
-2552,-2553,7
-2296,-2297,7
-2552,-1529,7
-2808,-1529,-249
-3065,-1529,-505
-3065,-1529,-505
-3321,-1529,-505
-3065,-1529,-249
-3065,-1529,7
-3064,-1529,7
-2808,-1785,-249
-2809,-1529,7
-2552,-1529,775
-2808,-1785,1031
-2552,-1785,775
-2296,-1785,775
-2296,-1529,1543
-2296,-1017,2311
-2552,-505,2311
-2552,-1273,2055
-2552,-1785,2311
-2808,-1785,2823
-2808,-1529,3335
-2808,-1017,3079
-2296,-761,3591
-2040,-1529,4103
-2040,-1785,3847
-3064,-2041,3847
-3320,-761,3847
-2808,-249,3847
-2552,-1017,4359
-2296,-1529,4615
-2296,-1785,4359
-3064,-1785,3847
-2296,-761,4103
-2040,-249,4359
-2040,-505,4359
-1784,-761,3591
-2040,-1529,3335
-2808,-1529,3335
-2552,-1529,3591
-2040,-1273,3335
-2040,-1273,2823
-2296,-1273,2567
-2808,-1529,2823
-2552,-1273,2823
-2296,-1273,3079
-2296,-1529,2567
-2808,-1529,2055
-3576,-1529,2055
-3320,-1785,1799
-2552,-1529,2055
-1784,-1017,2055
-2040,-1017,1799
-3320,-1273,1799
-3576,-505,2055
-2040,1031,2824
-1528,2055,4360
-1272,4103,5384
-1528,5127,5128
-1528,5127,5128
-1016,5127,6920
264,6152,7432
8,8456,6152
-248,12039,5128
1032,17160,2568
3336,20488,-2808
3847,21000,-4600
3847,21000,-10232
3591,21000,-12536
4103,20488,-13048
4359,19976,-12536
5383,17928,-11256
5127,14344,-9720
2311,10760,-7416
-249,6919,-4088
-2041,1799,-2296
-3833,-2297,-2041
-4089,-4345,-1785
-4089,-5113,-2553
-4345,-5881,-3833
-3833,-7161,-3577
-3321,-7417,-3833
-4089,-7161,-3833
-4089,-6649,-4345
-3833,-6649,-5113
-3577,-6649,-5113
-3577,-6649,-4857
-3577,-5881,-4601
-4345,-5881,-4345
-4345,-5881,-4345
-3577,-5881,-3833
-3065,-5369,-3577
-2553,-5113,-3321
-2553,-4857,-3321
-2553,-4601,-3321
-2553,-4601,519
-3576,-8185,6663
-4856,-12793,19463
-4856,-16889,-29177
-5112,-22521,-9977
-4088,-26105,1799
-1527,-24825,-24313
1288,-22776,-5625
8199,-15096,9479
16903,520,13576
26374,19208,-27128
-29435,-26616,-30200
-23291,-8952,-29944
-22011,5640,-30199
-23547,16904,-29687
-31739,17160,-30455
22021,13576,-30711
10501,13576,-27639
4101,11528,-1271
2053,1032,-24823
518,-12536,5640
-505,-16633,12808
-2297,26631,-21752
-3321,20743,-12280
-3577,15879,-5624
-4601,7687,-1016
-5625,775,3080
-5624,-4345,7687
-5624,-6649,10759
-6136,-6137,12295
-6648,-6137,12551
-6648,-7417,13575
-6392,-7929,14087
-7416,-8185,14599
-7160,-7161,15623
-7160,-6905,16135
-6904,-7161,16391
-7160,-7161,17159
-7928,-7417,16903
-8696,-7673,17159
-7928,-7417,18439
-7416,-6649,19207
-7160,-6137,19719
-7928,-6649,19975
-8440,-7161,20487
-8696,-7417,22023
-8696,-7673,22023
-8952,-7673,22791
-9720,-7673,24327
-9720,-7417,25351
-8696,-7673,26119
-8440,-7929,26887
-9208,-7929,28423
-8952,-7929,30471
-8952,-7929,30983
-8440,-8441,31751
-8440,-9209,-31993
-8440,-9209,-30457
-8696,-9209,-29433
-8952,-9209,-28921
-8184,-9209,-27641
-8184,-10233,-25593
-8184,-11257,-25081
-8440,-11257,-25081
-8184,-11001,-24569
-7160,-11001,-23801
-6136,-11001,-23545
-5880,-10745,-23545
-6392,-10745,-23545
-6392,-11513,-23801
-5624,-11513,-25337
-5112,-11001,-26105
-3832,-9209,-29177
-3576,-9465,-32249
-3576,-8441,30215
-3064,-7673,26631
-1784,-6393,22535
-1528,-4601,19975
-1272,-4345,17671
-1016,-4345,14343
-2040,-3577,12551
-2296,-2553,10759
-2040,-2553,9479
-1784,-1785,8455
-1272,-1017,6919
-1272,-761,5895
-1528,-505,5383
-1784,-505,4615
-1528,-505,3847
-1016,-249,3591
-1272,-249,3591
-1016,7,3592
-1272,263,2568
-1016,263,2312
-504,775,2568
-760,263,2312
-2040,263,2568
-2552,263,3080
-2296,7,3080
-2296,-249,3335
-2040,263,3080
-2296,519,2824
-3064,-1273,4103
-3320,-1529,4871
-3320,-761,4871
-3576,7,4872
-3576,7,5128
-3320,-761,5383
-3064,-1529,5639
-3064,-761,5383
-2296,7,5128
-2552,7,6152
-2552,-249,6919
-2552,-505,6663
-2552,-505,6919
-2552,-505,6663
-1784,-249,6407
-1784,-505,6919
-1528,-505,6663
-1272,775,6664
-1528,775,7176
-1272,519,6920
-1016,519,6920
-1016,775,7176
-760,1799,7176
-248,2055,6920
-248,263,6664
-1016,7,6920
-1784,7,6664
-1784,7,5896
-1784,519,5896
-1272,775,6152
-1016,263,5896
-1272,263,5896
-2040,7,6152
-2552,263,6152
-1528,263,5896
-1272,263,5128
-2040,263,4616
-2552,-249,4615
-2808,-1017,4871
-3064,-1017,5127
-2296,-505,4871
-1272,775,4104
-2040,1031,4104
-3320,-505,4103
-3576,-1017,4359
-1784,1031,5128
-1016,3079,5640
-1016,4359,6920
-1528,4103,7432
-1528,5127,7688
-1528,6407,8968
-1272,7175,9992
-1528,7175,10248
-1528,7431,10504
-760,10503,9992
264,16136,7176
1288,19720,1544
2312,19976,-2296
3335,19720,-4600
3591,20488,-7928
2823,20488,-9720
3079,19208,-9208
3079,16648,-6904
2823,13832,-5368
2311,11528,-4600
-1529,7687,-1272
-3833,1287,1800
-4600,-2553,2055
-6136,-3577,2055
-6904,-3833,2055
-5624,-7161,263
-5624,-9209,7
-4856,-8185,-249
-5113,-6137,-1017
-4857,-6393,-761
-4601,-6649,-1273
-4857,-6649,-1017
-4089,-5625,-1273
-3833,-5369,-1273
-4345,-6393,-249
-3577,-6393,-505
-3577,-5113,-505
-3577,-4857,-761
-3577,-4601,-505
-3833,-5113,263
-3832,-5113,-249
-3833,-4857,2311
-4088,-6649,7943
-4344,-11257,19719
-4600,-16121,-28665
-6136,-20473,-10233
-5368,-23801,3079
-2039,-24057,-13305
1544,-22008,5383
1800,-20984,-10489
15111,-2040,25095
25350,16392,-23800
-30203,-31480,-30456
-23547,-14328,-29688
-22523,520,-30967
-23803,10760,-29687
-28923,12552,-29687
24325,8968,-30455
11525,8712,-29431
5125,8200,-3831
2053,-1528,-25592
-250,-14073,6664
-2041,-26105,28424
-3321,27399,-19448
-3833,20743,-9464
-4601,16647,-2296
-6137,8711,1800
-6392,1799,5128
-5624,-2041,10759
-5624,-4857,14343
-7160,-5369,15623
-7672,-5369,15879
-7672,-6649,17159
-7928,-6905,18439
-7928,-6649,18183
-7928,-6649,18183
-8440,-6649,18695
-8440,-6649,20743
-8184,-6649,20999
-7928,-6393,20231
-8184,-6393,20231
-9464,-7161,22023
-9976,-7673,23047
-9720,-7417,23047
-9720,-6905,23047
-9976,-6905,24071
-10232,-6905,25863
-10232,-7417,26119
-10232,-7417,26631
-9976,-7161,27143
-9720,-7161,28423
-10232,-7417,29447
-10488,-7417,30215
-10232,-7417,31239
-10488,-7417,32519
-10744,-7673,-31737
-11000,-8185,-30969
-11256,-8697,-29689
-11256,-8697,-27897
-11256,-8697,-27385
-9720,-8697,-25849
-9720,-9209,-25081
-9720,-9209,-23545
-9208,-9977,-22521
-9464,-10233,-22521
-9208,-10489,-22521
-8440,-11001,-22009
-8184,-10745,-20729
-8184,-10745,-20985
-7672,-11001,-21753
-6904,-9977,-21753
-5368,-9721,-22265
-4600,-9721,-24313
-5368,-9465,-26873
-5112,-8697,-30457
-3576,-7929,32519
-2808,-6137,29703
-2552,-4857,25607
-2040,-3577,23303
-1784,-2809,21511
-760,-1785,18695
-248,-761,15879
-1272,-505,13575
-248,263,11784
264,776,11528
264,1800,9736
520,2056,7944
1032,2312,7432
776,2312,6920
1288,2568,5896
1032,3336,5640
1032,3080,5128
1032,3080,5384
264,2824,5384
264,2568,4872
776,2568,4616
776,2568,4872
1032,2312,5128
776,2568,5128
776,2568,5384
-248,2055,5896
-1016,1543,6152
-1272,1543,6152
-504,1287,6152
-760,1287,6152
-760,1287,6920
-760,1543,8200
-1016,775,8200
-1272,775,7944
-1272,519,7944
-2040,-505,8967
-2040,-505,9223
-2296,7,9992
-2552,-249,9991
-2040,-505,9735
-2040,-761,10247
-2040,-1017,10503
-2808,-1017,10247
-3320,-1017,10503
-3064,-761,10759
-2296,-505,10503
-2040,-505,10247
-2040,-761,10247
-3064,-761,10759
-3064,-1017,10759
-2296,-1017,10503
-2040,-761,9735
-1784,-761,9479
-1784,-1017,9735
-2808,-1529,9735
-2808,-1017,9735
-3064,-761,9735
-2808,-1529,8711
-2552,-1529,8199
-2296,-1785,8455
-2808,-1529,8455
-2808,-249,8711
-2296,7,8200
-2040,-1273,7687
-2040,-1785,7687
-3064,-1785,7943
-3064,-1273,7943
-3320,-1273,7687
-3064,-1785,7943
-2808,-1529,7943
-2808,-1529,7687
-3064,-1529,7175
-3064,-1273,7175
-3064,-1273,7175
-3064,-2041,6919
-3064,-2041,6919
-3064,-249,7431
-3064,1031,8712
-2808,1287,9736
-2040,2567,9736
-1528,4359,10248
-1272,5639,11528
-1528,4615,12808
-1784,4615,12808
-1784,5127,12040
-760,13063,11528
1800,17672,8712
1800,18440,3592
1800,18440,-760
2567,19720,-3832
3079,19976,-5880
3847,18696,-6904
4103,18440,-6392
4103,16392,-5112
3591,12552,-3064
1799,8456,-760
-1529,4615,2056
-4856,7,3592
-5624,-3321,4103
-5368,-5369,4359
-5624,-7161,3335
-5368,-8441,2311
-5112,-8441,2055
-5368,-8697,1799
-5368,-8697,1799
-4344,-7929,1799
-3576,-7929,1287
-4600,-7929,1031
-5112,-7161,1031
-4600,-6649,1287
-4344,-6649,1799
-4344,-6905,1287
-4344,-6905,1543
-4856,-6905,1543
-4856,-7161,2567
-4600,-6649,2823
-4856,-6905,2567
-5112,-7417,6407
-4856,-8953,13319
-5112,-14073,27143
-6392,-19193,-21241
-6392,-23801,-2553
-5112,-25849,5383
-2295,-24057,-22521
1800,-21752,-5881
8199,-15096,7687
17671,776,9736
27398,18184,-28920
-30203,-30200,-29688
-24059,-14072,-29688
-21755,-504,-30968
-24315,7944,-30199
32005,5896,-29943
17925,1544,-29943
13573,1544,-30711
2565,1544,12297
6,-9720,-9720
-2554,-21497,18184
-4089,32007,-27384
-4601,21767,-13816
-5113,17671,-5368
-5881,13831,2568
-6648,5639,6408
-6648,-1017,9479
-6648,-3833,13319
-7416,-4601,17415
-7416,-5113,18951
-7416,-6137,18695
-7160,-6649,18695
-7416,-6393,19463
-7672,-5881,20231
-7928,-5625,21511
-7928,-5881,21255
-7928,-5625,21767
-7672,-5369,23047
-7672,-5369,22791
-8184,-5369,23047
-8184,-5369,23815
-7928,-5113,24839
-7672,-4345,24839
-7160,-4089,25095
-6648,-4089,26119
-7672,-4345,27655
-8440,-4601,28935
-8696,-4857,29447
-8440,-5113,30471
-8184,-5113,32007
-8696,-4857,-31993
-8952,-4857,-31481
-8440,-4857,-30969
-8696,-6393,-29945
-8440,-6649,-28409
-8184,-6649,-27385
-8696,-6905,-26617
-8952,-7161,-25337
-9720,-7673,-23289
-9720,-7673,-23289
