8,5640,6920
8,5128,7176
-248,4871,7432
-248,4871,7432
-248,5127,7432
-760,5127,7688
-760,4871,7688
264,5128,7944
-1016,2823,8200
-2296,2311,10248
-5112,263,13064
-5112,-2809,15111
-2552,-8441,18695
1288,-12536,22023
9224,-12280,25607
22792,-7928,30727
-24824,-3576,-29689
-9720,-4088,-20729
-504,-7928,-8185
5128,-9207,3847
4873,-11767,8199
-5367,-17912,-7161
-31736,-20472,32263
520,-20472,22279
-17400,-16121,23815
-21752,-9209,27911
-24824,-9721,-22009
-26616,-15353,-8185
-25848,-18169,-5113
-25336,-18425,-2809
-24824,-15097,-3321
-24312,-11513,-13305
-23544,-11001,-18169
-20984,-15353,29959
-18936,-16633,25351
-18680,-17913,22279
-18424,-17657,14855
-17912,-16633,5383
-16632,-15097,-1017
-14841,-13305,-1273
-12793,-10233,-1529
-9209,-4089,-3833
-5369,2055,-4088
-3577,4615,-3576
-2809,4871,-3320
-2041,7175,-2552
-505,9223,-1272
-505,8967,-1272
-505,8711,-1784
7,9224,-2040
263,9992,-2040
775,10760,-1528
519,10760,-1528
263,11016,-1528
263,11528,-1784
519,12040,-2040
519,12296,-1784
1287,12552,-2040
1799,12808,-2552
1287,12808,-3064
1543,12808,-3320
1543,13576,-3064
1543,14344,-3064
2055,14344,-3576
2567,15112,-4088
2823,15368,-4344
2567,15624,-4600
3079,16648,-5368
4615,17416,-5368
5639,18184,-5624
5639,19208,-6648
5895,20744,-7928
7175,22024,-8696
8455,22280,-9976
10503,23560,-10232
10503,25352,-11000
11015,26632,-12536
12551,28168,-12792
13063,29448,-13048
13575,30216,-14328
14343,30984,-15096
14855,30984,-14840
15879,30984,-14840
15623,31496,-14840
15879,31752,-13816
16135,31240,-11768
15111,30728,-9720
14343,28936,-8952
13831,27400,-7672
13319,27400,-5368
12807,26120,-3576
11271,24840,-3064
10503,23304,-2296
9479,21768,-760
8711,21256,520
7432,19976,1032
6664,18440,1288
6664,18184,2056
6152,17416,3592
4872,16648,3592
4104,15112,3592
3848,14600,4616
3848,14344,5640
4104,13832,6152
3336,13064,6152
1800,13064,6152
1800,13064,6408
2568,13320,6664
2568,12040,7688
1288,11272,7688
264,11528,7688
520,12040,7944
776,12296,7944
776,12296,8200
776,11528,8968
1032,11272,9480
1032,11016,9480
520,11784,10248
264,12040,10504
264,11784,10248
1032,13064,10504
1544,13320,9992
-248,11783,9480
-760,9735,10248
520,7432,12040
776,3848,14344
264,1288,16392
-1016,7,17672
-2296,-3065,18439
-2552,-6393,20487
-2808,-9209,23303
-3832,-12793,26631
-5112,-14585,27655
-7160,-20473,-20729
-7160,-21241,-3065
-4600,-21497,14855
-247,-22521,31239
5129,-23800,-16377
10249,-24312,5639
14602,-26616,25607
17674,-32248,-31737
19210,27912,-31225
20234,29192,-30201
20234,-30968,-29689
8970,-29432,-31481
-11766,30983,-30969
-28406,20999,-30969
29450,13063,-30201
26378,14343,-30457
28682,24583,-30969
-31478,-31737,-30457
-27638,-25593,19207
-25078,-20217,-4601
-20471,-16633,-12025
-16887,-12537,-15609
-14327,-7161,-18681
-11511,-5369,-15097
-11767,-5113,-14073
-13047,-4857,32263
-13303,-4601,7431
-14327,-4601,-24825
-15096,-3833,10503
-15096,7,-18168
-14585,5127,26888
-12025,9223,17672
-7673,14343,15368
-4089,18951,19720
-1017,23815,23048
3335,30728,21768
8455,-28664,21256
10247,-25592,19208
10503,-25592,16648
11015,-26104,14344
12295,-25848,9480
13831,-24824,4616
14343,-23288,2056
14343,-22008,2056
14343,-21496,1544
14343,-21240,-1784
13574,-21496,-4856
13574,-22520,-7416
15622,-23288,-10232
16390,-23544,-12024
16902,-23800,-19448
16646,-23800,-22776
18182,-23800,-26360
20230,-23288,-32504
20742,-22776,27656
21766,-21496,23304
23302,-20728,19720
25350,-20728,14600
26886,-20728,9736
27654,-20472,7176
28934,-20728,4872
29702,-20472,1800
30214,-20472,-1272
30725,-19704,-1528
30981,-19704,-760
30981,-20728,520
31238,-20984,2824
31238,-21240,6664
31238,-21240,11272
30726,-22520,16648
29702,-24056,23048
28422,-24568,30984
27398,-26104,-25848
26374,-27128,-17656
25606,-27640,-15608
23302,-30968,-248
21254,32008,8712
19463,29448,16392
17927,27656,23560
15879,25352,30472
14087,23048,-27384
13063,21512,-21240
11783,19976,-16888
9735,18440,-12536
8967,17160,-8440
7943,15368,-5624
7687,14344,-3320
6919,14344,-1784
4871,12552,8
4104,11272,2312
4360,11272,3592
4104,11016,3592
3848,10248,3848
3336,9224,4872
3336,9224,4872
3080,9480,5128
2568,9480,5128
2568,8968,5640
2824,8968,6152
2568,8200,6408
2824,8200,6408
2824,8712,6152
3080,9224,5896
2824,8712,6152
2312,7944,6408
2056,7688,6920
1544,8200,7176
1800,8456,7176
1288,8456,7688
1032,8456,7432
776,7176,7944
264,6408,8712
520,6664,9224
264,7432,8968
264,7432,8968
1032,7688,8968
1544,7688,8712
1288,7688,8200
776,7432,8200
8,7688,8712
8,7688,8456
264,7688,8200
520,7432,8456
520,7688,8456
8,7688,8456
8,7176,8456
520,7176,8200
1032,6664,7688
1032,6920,7944
520,8200,7944
-504,8711,7944
8,8968,7688
1544,9480,7432
776,8968,7432
8,8200,7432
-248,8455,7944
8,8456,8200
1544,8968,7944
1544,9224,7688
520,9224,7432
776,9480,7176
520,9480,7176
776,8968,7432
1288,9224,6920
1544,9224,6920
1544,8968,6920
1288,8968,6664
1032,8712,6920
1544,9224,6664
1544,9736,7688
2568,9480,7432
2568,8968,7176
2056,9224,7432
1544,9224,7688
1800,9992,7432
1800,10760,7688
1800,10504,6920
3336,10504,6408
2824,10504,6664
1800,9992,6920
1800,9480,7432
2312,9480,7176
2312,9736,7432
2056,9736,7432
1288,9736,6920
1032,9736,6920
1544,9480,6920
2312,9224,6664
2312,9480,6920
1288,9224,6920
1544,9224,6664
1288,9480,6920
1544,9480,7176
1544,9224,7176
1544,9480,7176
2312,9736,7176
264,9480,7176
520,8968,7432
1032,8968,7432
1032,8968,7688
1288,8968,7176
1032,9480,6920
1032,9480,7176
2056,9480,7944
2312,9736,7944
2568,10504,7944
2568,10248,7432
2056,9736,7432
1800,9992,7432
1800,9992,7432
1544,9736,6664
2056,10248,6408
2312,10504,6408
2568,10760,6152
2568,10760,5896
2568,11272,5896
2824,11272,5640
2568,11016,5896
2568,10760,6408
1800,9992,6408
2824,9736,6408
3592,10760,6664
2824,10760,6664
2312,10248,6152
2312,10248,6152
2312,10248,6152
2568,10248,7176
2568,10760,7176
2056,10504,7176
2056,9736,6664
1800,11016,6920
2312,12296,6920
3080,12296,7432
3080,12040,7944
2824,12296,8200
3336,12552,7944
4104,12808,8200
4104,12552,8456
2824,12808,8456
2568,12808,8712
4616,13576,9224
5384,14088,9224
4872,14344,9224
4360,15368,8712
3080,16136,8456
5384,21000,7432
7176,22536,7176
7176,23048,7432
7176,22280,7176
7176,21512,5896
7176,19976,3848
7176,18696,1800
7176,19720,1544
6664,20232,2824
5896,18952,4360
5128,17160,5128
3848,15368,5128
3592,13832,5640
3848,12296,5896
3848,11016,5896
3848,10248,5896
2824,9992,6152
2056,9992,5640
2312,9736,5384
2824,8200,5640
3080,7432,5896
1800,7432,6152
776,7176,6664
-504,5895,8456
-1784,4615,9992
-1784,-249,13575
-760,-4601,17159
4360,-7672,19975
13832,-7672,24071
26120,-5112,29447
-24056,-2040,-30713
-8952,-1528,-23545
4616,-3831,-11769
13576,-4855,519
11529,-6903,5383
265,-11767,-9721
-24824,-13816,28935
6920,-14072,18439
-16120,-12537,19463
-23032,-6649,24583
-25592,-5625,-26361
-24824,-9721,-12281
-24568,-13817,-9465
-24824,-15353,-7673
-24568,-11001,-8441
-24056,-6137,-18425
-23544,-8697,-30713
-22008,-13049,26119
-20216,-14073,22279
-20216,-14329,22023
-17400,-14329,14343
-17912,-14329,6151
-17656,-13817,-761
-15097,-10489,-2553
-11513,-5881,-2809
-8953,-761,-3577
-7161,2823,-3832
-4601,6151,-1784
-2809,8199,-1272
-2553,8455,-248
-2809,8455,1032
-3832,7175,1544
-5112,5895,520
-4856,7431,-760
-2553,8711,-1528
-249,9991,-2296
-249,11271,-2296
-505,11271,-2552
-505,11015,-2296
-761,10759,-1784
-761,10247,-1784
-761,10759,-2552
-761,11527,-2296
-761,12551,-2552
-1785,13063,-2808
519,13576,-3320
1031,13576,-3576
2055,14856,-3320
2055,14856,-3064
775,13832,-2552
775,13832,-2296
2055,14088,-2040
3591,14856,-2552
3847,15880,-3320
3591,16648,-3832
4359,17160,-4088
5639,17416,-4088
6919,18696,-3832
7175,20232,-4344
7175,20232,-4344
8455,21256,-4600
9479,22536,-4856
9735,23304,-4600
9991,23304,-4600
11783,23560,-4344
12807,25096,-4600
12551,26632,-4856
12551,26888,-4344
12807,26376,-4088
13063,25608,-3576
13575,25864,-3576
13831,27400,-3064
13319,27400,-1784
12551,26120,-1016
12551,24840,-760
11783,24328,264
11784,24584,1800
11784,23560,2824
11016,22024,2824
9480,21000,3336
7432,20232,3592
7432,20232,4616
7432,19720,5128
5640,18184,5128
4872,17672,5128
4872,17416,6408
4360,16392,6920
4360,15112,7176
3592,14856,7176
3336,14600,7432
3080,14344,8456
2312,14344,9224
1288,14600,9480
1800,13832,9736
1544,13320,10504
1288,13320,11272
776,13320,11272
776,13576,11784
1800,13064,12296
2312,13320,13064
1800,13832,13832
1288,14088,14344
1032,14088,15112
1288,14088,15624
2056,13576,15880
1800,13320,15880
1800,13064,15368
1544,12808,15112
1800,12808,16136
2056,12808,15880
2312,12808,15880
2056,12552,16136
2312,12552,16136
1288,12808,15624
1288,12552,14344
1800,12552,13832
1544,11784,13832
1288,11016,13832
1288,11272,13832
-248,11015,13576
1288,10760,12552
1544,11016,12552
1544,11016,12296
1288,11016,11784
776,11016,11272
776,11272,11016
776,11528,11016
1032,11528,10760
1288,11784,10504
1288,11272,10760
1032,10504,10760
520,10760,10760
-504,10759,9992
-248,11271,8968
776,11528,9224
520,10248,9480
264,9480,9480
1288,10248,8712
776,11016,8200
-248,11527,8200
-248,11527,9480
8,10504,9480
8,10504,9480
776,11272,9736
520,11272,9736
1544,12808,9736
776,13320,9992
264,12296,9992
1032,12296,9736
1288,12296,9736
264,12040,9736
264,12040,11016
1032,12040,11272
1544,12296,10760
1544,12808,10504
520,12808,10248
776,15368,9992
2056,18696,9224
3080,21000,8968
4360,21512,8712
4104,20488,8712
4104,18696,7688
3848,16136,5640
3080,15112,3592
2824,16648,3592
2568,17160,5384
2312,16648,6664
1288,15112,6920
-248,13063,6920
-1272,12807,6920
520,10760,6920
520,9480,6920
8,7944,7432
-1016,6663,7944
-1016,6407,7688
-504,6919,7176
-248,7175,6920
-248,6919,6920
-248,6919,7176
-760,6663,7176
-504,6919,6920
-504,6919,7176
-760,6407,7176
-2552,5639,7176
-2552,5127,8200
-3064,3847,10504
-4600,1031,12296
-4344,-2297,14343
-2296,-6649,17927
3848,-8440,21511
14856,-7672,26375
28424,-4344,31239
-21752,-1784,-29689
-8440,-3832,-20473
-5880,-5624,-16121
4872,-6135,1543
1033,-8951,1543
-14327,-13560,-18681
23304,-16632,26375
-5624,-17401,22279
-20216,-13817,24327
-24824,-8441,30727
-25592,-9465,-18681
-25336,-14329,-7161
-25336,-17913,-4601
-25080,-17401,-2553
-25080,-12281,-5625
-24568,-10489,-15353
-23032,-14329,-26617
-22264,-17401,29959
-21240,-17913,25863
-19704,-17145,22279
-19192,-17401,14855
-19192,-17657,5895
-17400,-16377,-505
-16121,-14073,-761
-13817,-9209,263
-9720,-2553,-2041
-6393,2311,-2552
-6393,2567,-2552
-3321,6663,-1528
-3321,7943,8
-2552,9479,520
-1784,9479,8
-2040,9735,-760
-1785,9991,-1016
-1273,10503,-760
-1017,11015,-760
-1017,11271,-504
-1273,11783,-760
-1017,11783,-1272
-1273,12295,-1016
-1529,12551,-504
-1017,12807,-760
263,13576,-1016
263,14600,-1784
-249,14343,-2040
7,14600,-1528
7,14088,-1016
263,14344,-1528
775,15112,-1784
1031,16136,-2296
1287,16904,-3320
2311,17672,-3320
1799,17672,-3576
2055,17928,-4088
2567,18696,-5624
3335,20232,-6648
4615,21768,-7672
4871,22280,-8440
5639,23816,-9208
7175,26632,-10488
7431,27400,-11256
7175,27400,-12024
7687,27656,-12792
8455,29448,-13304
9735,31240,-14328
9735,32008,-14584
9479,31752,-14328
11015,32008,-14328
12039,31496,-13048
12039,31496,-11000
11527,30984,-9976
11015,29448,-8696
10759,28168,-6904
10247,26632,-5368
8967,25096,-4088
8455,23816,-2808
8199,23048,-1784
7687,22792,-1016
6151,21512,1032
5384,19208,1288
5384,17928,2056
4616,17672,3336
3336,17672,3592
2568,15880,3848
2312,14600,4104
1800,14600,4872
1544,14600,5384
264,13832,5128
-248,13063,5640
-248,12807,6664
-504,12807,6920
-248,12551,6664
520,11784,6408
8,11784,7432
-1016,11527,7944
-1272,11527,7688
-1272,11527,7944
-1016,11271,7944
-1528,11271,8456
-2296,12039,8968
-2040,12039,8968
-2040,11527,9224
-2808,10503,9480
-2808,9223,9480
-2552,9223,9480
-1784,8967,9736
-1016,8711,10248
-1016,8967,9992
-1272,10503,10248
264,13832,11016
2056,14344,10504
3080,14088,10248
3080,13832,10248
2312,13320,9992
1544,12808,10504
264,11528,11272
-504,9479,11272
8,8968,11528
8,9224,11016
520,9224,10504
520,9224,10504
-248,8455,10248
-1528,7943,9992
-1528,7943,10248
-504,6919,9992
-760,5895,9224
-760,6151,9224
-1272,6151,9224
-4088,4103,12808
-4600,775,14856
-2808,-4601,18695
-248,-12025,23303
5128,-15096,27399
17160,-11512,-31737
-30968,-4600,-24825
-14840,520,-16888
-3832,520,-3576
1544,2313,9224
1801,4617,15624
-6903,-2552,7175
-28663,-11256,-20473
5896,-14072,25095
-15096,-12281,25863
-22264,-4857,30983
-25336,-3321,-24057
-26616,-10489,-10233
-25592,-15865,-5113
-25336,-16633,-3321
-25336,-13817,-3321
-24312,-9721,-10233
-22776,-9721,-21753
-21496,-12793,32007
-21752,-14073,28935
-19448,-15865,23047
-18424,-15609,17927
-18424,-15609,9479
-17912,-15097,2311
-17144,-13049,-249
-14073,-8185,7
-10488,-2553,-761
-7929,1543,-1784
-5113,5639,-2296
-4857,6151,-1528
-4601,6151,8
-2808,8967,8
-2296,9991,-248
-2041,10503,-504
1031,12296,-1528
1287,12040,-1272
-761,10759,-248
-761,10503,-504
7,12296,-1272
775,14344,-1784
1031,13576,-1272
263,12808,-504
519,13064,-1016
1287,13832,-1016
1799,14344,-1016
2055,14088,-760
2311,13576,-760
2567,15112,-1016
2567,16392,-1016
2567,15880,-1016
3335,15624,-1528
3591,15624,-2296
3335,16392,-3064
5639,17672,-3576
6407,18696,-3576
6151,18696,-4088
6663,19208,-5624
8455,21512,-7928
9735,22792,-8696
9991,23304,-9208
10759,25096,-10488
12295,27144,-12024
13063,28680,-12792
13063,29192,-13048
13319,29704,-13560
13319,30728,-14584
14343,31752,-14328
14855,31496,-13304
15111,30984,-12024
15367,31240,-11256
14855,30984,-8184
13575,29960,-6136
12295,28168,-5112
12295,26632,-3576
11271,25864,-2296
9991,24840,-1016
8711,23304,264
8200,21768,1032
7688,20232,1800
6664,18952,2824
5640,18440,4104
4616,17160,5128
3080,15880,5384
3080,15880,6152
3080,15880,6664
3080,15112,6920
3080,14344,7432
2312,14344,7432
776,13576,7432
1032,13064,7688
1544,12808,7944
1288,12808,7944
1544,13576,7432
1544,13832,7432
1288,13832,8200
520,12296,9224
520,11784,9480
520,12040,9224
264,12296,8712
520,12808,9480
520,12552,9736
520,12296,9736
520,12040,9736
776,11272,9992
776,11272,11016
264,11272,11528
-248,11527,11016
8,11784,10504
-248,11527,10504
776,11272,10504
1544,11528,10248
1288,11016,9992
1032,11016,9736
1032,11016,9736
520,10760,9736
8,10248,9992
-248,10247,9224
520,10504,9224
1288,10248,9224
1288,9736,8712
520,9992,8712
520,9992,8968
776,9992,8968
776,10760,8456
776,9992,7944
776,8968,8200
-248,8711,8200
-760,8711,8200
520,9736,7944
264,10760,7432
264,10248,6920
264,9736,6920
8,9736,7176
8,9736,7176
-248,9735,7176
8,9736,7432
8,9992,7432
-504,9991,7432
-760,9479,7432
-760,8455,7176
8,8712,6920
776,10248,6920
776,10504,7176
776,9992,6920
1032,9736,7176
520,8968,7176
8,8712,6664
8,8968,6408
-760,9479,6664
-504,9991,6664
-248,9991,6664
264,10248,6920
520,9480,6920
776,8968,6664
520,8968,6920
8,8968,6920
-504,9223,7176
-504,9479,7176
264,9224,6920
776,8968,6920
1288,8968,6664
1032,8968,6408
776,8712,6664
776,8200,6920
520,8456,6920
520,9224,6920
776,9736,6664
520,8968,6664
520,8200,6920
1032,7944,7688
264,8200,7944
8,8200,7432
-248,9479,6664
-248,9223,6920
264,8456,7176
1032,8456,6920
1032,8456,7176
1032,9480,7432
1288,9736,7432
776,8968,7688
776,8456,7688
520,8456,7688
264,9224,7688
1288,9224,7944
1800,9480,7944
1288,10504,7688
1032,10760,7688
1288,10248,7688
1288,11272,7688
1544,11528,7176
1544,12552,6920
1544,13832,7176
2568,14600,7176
4616,15368,7688
5640,16392,7944
4616,16392,7688
4616,15624,7688
4616,14600,7944
4616,14088,9480
4104,13832,10760
2824,13064,11528
2312,9992,11272
776,7432,11016
-1016,6919,11016
-3576,4359,11784
-5112,775,13064
-2552,-3321,18183
2056,-7160,22535
9224,-8184,25095
22536,-6136,30215
-26616,-3064,-28409
-12280,-2808,-20985
-504,-5368,-10745
6664,-6903,519
6665,-8183,7943
-3319,-13048,-4857
-24312,-16632,32519
10760,-19960,19463
-13048,-19193,22791
-16632,-16121,24327
-24824,-8697,-26361
-27128,-12793,-12793
-27128,-18425,-9721
-27384,-19705,-8697
-27640,-15353,-11769
-26104,-9977,-25081
-24824,-10233,26375
-23032,-14329,19207
-21240,-15609,16903
-20216,-15865,13319
-20216,-16633,7943
-20216,-16889,2055
-19192,-16121,-3577
-17145,-13049,-5881
-14073,-9721,-5625
-11001,-5113,-5369
-8441,519,-5112
-6393,4871,-5368
-4601,6151,-5880
-3065,6663,-4856
-1785,7943,-3576
-1529,8455,-3320
-1785,8967,-3576
-1529,9735,-3832
-249,10503,-3832
-505,10503,-4088
-505,10247,-3832
-1529,9223,-3832
-1273,9223,-4088
-1273,9991,-3832
-761,10503,-4088
263,10760,-3576
263,10504,-3576
519,10504,-4088
263,11016,-4088
263,11272,-4088
519,12040,-4344
1543,12552,-4600
1543,13064,-4600
1543,13832,-4344
2055,14600,-4088
3847,14600,-4088
3591,14600,-4600
2311,14344,-5112
3079,15112,-5368
4359,16136,-5112
6407,18184,-6648
7687,19208,-7928
7943,19208,-8184
8967,20232,-7416
9223,22024,-7416
10759,23048,-7928
10759,23304,-8952
11015,23816,-9464
12039,25352,-9720
13319,25864,-9720
14087,26632,-9976
13831,26888,-9976
13575,27400,-9720
13575,27656,-8952
13575,27656,-8184
12551,25864,-6904
12295,25608,-5112
13063,25352,-3576
12807,23560,-2552
11527,21768,-1272
9991,21512,-1016
8455,20744,8
8712,19464,1032
8456,18184,1544
7176,17160,2056
6408,16648,2824
6152,15624,3080
5128,14344,3592
4872,14344,3848
2568,12552,5640
2824,11784,6408
3336,11272,6664
2056,9992,7432
1800,9736,8456
1288,9480,8456
1032,9480,9480
776,9480,10248
520,9736,10760
264,9736,11528
-248,9735,12296
-504,9479,12296
-248,9479,12552
8,9480,13064
264,9480,13576
264,9736,14344
264,9480,14600
520,9992,14600
520,10248,15112
8,9480,15368
-248,8455,15624
520,8200,15624
520,8200,15624
264,8200,15880
1288,8200,15368
264,8712,14856
-248,8455,14856
-248,7943,14088
-248,8199,13832
-504,7431,13832
8,6664,13320
776,7688,12552
1032,7944,12296
520,7688,12040
-1016,7431,11784
-1528,7687,11272
-1272,7431,11528
-504,6663,11784
-504,6151,11272
-1528,6151,11016
-1528,6151,11016
-1272,6151,10504
-1528,5639,9992
-1528,5383,9736
-2296,5383,9736
-2552,6151,9992
-1784,6663,9992
-1528,6663,9736
-1272,6151,8968
-1016,6151,8968
-1784,6663,8968
-1016,6663,8712
-1272,6919,8200
-2296,6407,8200
-2296,5639,8456
-2040,5383,8456
-1784,6151,8712
-2040,6663,8712
-2040,6663,8456
-1528,5639,8456
-1528,5383,8200
-1784,5639,8200
-2552,5895,8200
-2296,5895,8200
-2296,5639,8456
-2296,5639,8200
-2296,5383,8456
-1784,5639,8968
-1528,6919,8968
-1528,6919,8456
-1528,6663,7432
-1016,6663,7432
-1016,6407,7944
-760,6407,7944
776,7176,7432
-760,6919,7432
-760,6663,7176
-760,7175,7176
-1528,7175,7176
-760,7175,7432
-248,7175,7432
-504,7431,8200
-760,7175,8456
-504,7431,8712
-760,8967,9480
-248,8967,9736
8,8456,9224
264,8456,8968
264,8712,8968
-248,8455,8968
264,8712,9480
776,9992,9480
520,10248,9480
264,9992,9480
8,10248,9224
264,13320,8456
1800,16648,7432
3080,18184,7432
4104,18440,7944
4872,18696,7944
2824,14600,5640
2568,13320,3848
2568,13320,2824
1800,13576,2824
1800,14344,4104
1544,13832,5640
776,11528,6152
-504,9223,6152
-504,8967,6408
520,8968,6408
264,8200,6408
-248,6407,6664
-248,5639,6920
-1272,5383,6920
-1528,4615,7176
-1528,3079,7688
-1528,2823,7944
-2296,3079,7944
-3576,2311,8456
-5112,263,10504
-6648,-2553,13063
-7672,-4857,14087
-6648,-8185,16647
-4344,-13817,21255
-1784,-16377,22279
10504,-16888,29703
24584,-12536,-30713
-27384,-9720,-25081
-16376,-11512,-16377
-7928,-11768,-7417
-4856,-8952,-1273
-10232,-11256,-4345
-26616,-16888,-24569
12552,-20728,24327
-11256,-22009,22791
-21496,-17145,24327
-24568,-12793,-32505
-25848,-15609,-16889
-26616,-19961,-8185
-26616,-23033,-5881
-27128,-23033,-4601
-26616,-17657,-9977
-26104,-15609,-21241
-25592,-19449,-31225
-24312,-22265,27399
-22776,-22521,23047
-20984,-22777,17927
-19960,-22521,11527
-19960,-22009,4615
-19448,-22009,2823
-17912,-18681,7
-15096,-13817,-249
-12793,-7673,-2041
-9721,-2297,-2041
-7161,1543,-2040
-5625,3079,-1784
-5113,3335,-248
-4345,3591,776
-4344,3335,1032
-5112,3591,-1016
-4089,5383,-1528
-3321,6407,-504
-3321,6407,-504
-3321,6407,-760
-3321,6919,-1016
-3577,7175,-1016
-4089,7175,-1016
-3577,6663,-1528
-3833,6919,-1784
-3833,6919,-2040
-3321,7175,-1784
-3321,8199,-1784
-2041,9479,-2040
-761,9991,-2552
7,10248,-2808
-1273,10247,-3320
-1273,10247,-3064
-1529,9991,-4088
-1273,9991,-4856
-1273,11527,-5112
-1017,13575,-5624
775,13832,-7160
1799,14088,-8440
1799,16392,-8952
2311,18696,-9720
3591,19208,-11256
4359,19208,-12792
4359,20488,-13560
4359,22280,-14072
6151,23816,-14840
7943,24584,-15864
8199,24584,-16888
8455,25352,-17144
8455,26376,-17400
8199,25864,-17400
8455,25864,-17144
9223,26376,-15864
8967,25608,-13304
9223,24584,-11768
9735,24072,-11768
6919,21768,-9464
5895,21256,-7928
5127,20232,-6648
4615,18696,-5112
4615,17672,-3576
4359,17160,-2552
4359,16648,-1784
2823,15112,-504
2055,13320,520
1032,12296,1032
264,11272,1288
-1272,10503,2312
-1272,9735,2824
-504,9479,3080
-504,9735,3848
-1272,9735,4360
-2040,8711,4616
-2808,7687,5640
-3064,6663,6152
-3320,6663,5896
-3320,6663,6152
-3064,6407,6408
-2552,6407,7432
-2040,6919,7432
-760,7431,7176
-3064,6663,8456
-3064,6919,8968
-3064,6919,9224
-1784,7175,9736
-760,7431,9736
-1272,7687,10248
-2296,7431,11016
-2808,7687,11016
-2808,6919,11016
-2296,6407,10760
-1784,6151,10504
-2040,5895,10760
-1272,5895,10504
-504,6151,10760
-1016,5895,10760
-1528,6151,9224
-1528,6151,8712
-1272,5895,8968
-1272,5895,9224
-1016,5895,8968
-760,5639,8968
-504,6919,8712
-248,7431,7944
-760,6407,7688
-248,6151,7432
-1016,5639,7688
-760,5895,7432
-1272,5895,7432
-1272,5895,7432
-1528,6151,7176
-1528,6407,6920
-1272,5895,6664
-1016,5895,6920
-1272,6151,6664
-1528,5895,6664
-1784,5639,6664
-1784,5639,6664
-2040,5127,6408
-2040,4871,6664
-1272,5127,6408
-1016,5639,6408
-1016,6407,6408
-248,6663,6408
-248,6663,6408
-504,6919,6408
-760,7687,6920
-504,7943,7176
-248,8199,6920
1032,8712,6408
2056,8968,5896
8,8968,6152
264,8968,6664
520,8968,7688
776,8712,7688
1288,10248,7432
1032,10504,7176
1288,11528,6664
1800,14600,5896
2056,16904,5640
2568,16648,6408
2568,14856,6664
2568,13320,5640
3080,11784,3592
3080,11528,1288
3080,12040,1288
1800,12552,3080
776,12040,4360
520,10504,4360
-760,7943,4360
-1784,5895,4872
-1272,5127,5640
-760,4359,5384
-504,3847,5384
-1528,2823,5640
-1784,3079,5384
-2040,3079,5640
-1784,3079,5896
-2040,1799,5640
-2296,1543,5384
-2040,1799,5384
-2296,775,5896
-2040,263,5896
-2552,263,5640
-3832,-249,6407
-5624,-1785,9223
-7416,-4089,12039
-7416,-7673,13575
-5624,-11257,16647
-1784,-14585,20231
5640,-15864,23559
17672,-13304,27655
-31480,-8440,32519
-16632,-7160,-25849
-6648,-11256,-14329
1544,-12791,-3065
2824,-12791,2823
-5623,-17400,-6649
-26616,-21496,-30457
7432,-23032,22023
-2040,-23545,20743
-23800,-15865,26631
-26872,-12793,-27641
-27896,-16377,-12537
-27640,-20729,-6905
-27384,-22265,-4601
-26616,-19449,-3577
-25080,-13817,-10489
-24824,-14841,-22009
-24824,-19961,-32761
-22008,-21753,26375
-20216,-21497,23303
-20472,-20729,17927
-20472,-20473,8967
-18424,-19961,519
-16376,-18169,-1785
-14329,-14585,-1529
-11769,-9209,-2809
-8697,-3833,-4089
-6393,-249,-4089
-5113,2055,-3832
-3065,3847,-3832
-2041,4615,-2552
-2041,4615,-1528
-2041,5127,-1528
-2041,5895,-2552
-1785,7175,-3320
-1273,6919,-2808
-1017,7175,-2296
-1017,7687,-2296
-1273,7687,-2552
-1273,7687,-2552
-761,7687,-2552
-761,7943,-2808
-761,7943,-3064
-761,8711,-3320
-1017,9223,-3576
-761,9223,-3576
519,10248,-4088
1287,10760,-4088
1031,11016,-3832
1287,11016,-3832
1287,10760,-4600
1031,12040,-5880
1543,13320,-5624
2567,13576,-5624
3847,13832,-6392
3847,14856,-7160
4615,16648,-8696
6151,17672,-9464
6663,17672,-9720
7687,19208,-10744
8199,21000,-11512
9479,23048,-12024
10759,23816,-13048
11015,24072,-14072
10503,25352,-14584
11783,26888,-14840
12295,26888,-14584
12807,26376,-14840
13063,26120,-14840
13319,26888,-13560
13319,27144,-11512
12551,25608,-9976
12039,23560,-9464
11783,22792,-8184
11527,23048,-5880
10247,22280,-4856
8711,19720,-4600
7431,17160,-3320
6407,17160,-1272
6151,16904,-248
5895,14344,-248
5127,12808,264
4104,13064,1544
4104,13064,2312
3080,11784,2824
2056,10760,3080
1800,10248,3592
1544,10248,4104
776,9224,4104
264,8712,4104
264,8712,4104
8,8456,4616
8,8712,5384
-504,7943,5640
-1016,7431,5384
-1016,7431,6152
-248,7431,6664
776,7944,6920
776,8200,7688
-504,7431,8200
-248,7687,8200
8,8200,7944
-248,8199,8456
-760,7175,9224
-760,7175,9736
264,7176,9992
1288,6920,10248
1544,7688,10248
520,7432,10248
8,7432,11016
8,7688,11272
264,7432,11016
776,6664,10504
1032,6920,9992
1288,6664,10248
1032,6920,9736
520,6664,9224
520,5896,9224
1288,6152,9224
1032,6152,9224
1032,6408,8968
1032,6408,8456
520,5896,8712
264,5896,8712
264,5640,8200
776,5896,8200
1032,5896,8200
264,5128,8456
8,5128,8712
8,5896,7432
-504,5639,6664
-504,5639,7432
-504,5383,7432
-504,5383,7688
-504,5639,7176
-1016,5639,6664
-1016,5127,6664
-248,4871,7432
264,5896,7688
-248,6407,7688
-504,6407,7432
776,6664,7432
776,7688,8200
8,8456,8200
264,8712,7944
264,7688,7688
264,7176,7688
776,7176,8200
1544,7944,8968
1800,9480,9224
1544,9480,8456
1800,9480,8200
1288,10760,8456
1544,12808,7944
2824,16392,6920
4872,18184,6920
5128,16904,7432
4616,14088,6920
3848,13320,6152
3080,12808,2312
3080,12552,1544
3336,12808,2824
2568,12808,4360
2056,12296,4616
1544,9992,4616
264,7176,5640
520,6408,6664
264,6408,6664
520,5640,5384
264,3848,5384
264,3080,5640
264,2824,5640
520,3336,5640
520,3592,5640
520,3336,5896
-504,3079,6408
-1016,2823,6408
-504,3079,6408
8,2312,5640
8,2056,5640
-504,2311,7176
-3320,519,9480
-5368,-2297,11015
-5368,-2297,11783
-1016,-10745,17415
4616,-13048,20999
14856,-12024,25351
30472,-8440,30727
-17912,-5624,-28409
-5112,-8952,-17913
4872,-12535,-4857
10504,-12279,6407
7945,-13815,6663
-8695,-19192,-17145
26888,-23544,24839
-3320,-23545,20487
-17400,-17401,22791
-22520,-11513,30215
-25848,-14073,-18937
-26104,-19193,-8953
-25592,-20729,-7929
-25848,-19705,-5369
-25848,-14841,-9209
-24312,-12793,-21241
-22264,-16377,31495
-21240,-18937,23815
-19704,-19449,20487
-18168,-19193,16647
-17912,-19449,13831
-17656,-19193,-761
-17657,-18169,-4857
-16633,-15353,-4601
-12793,-10489,-4345
-7929,-4601,-6393
-4857,7,-6648
-4089,2311,-5368
-3065,3335,-4856
-761,4359,-4344
7,5384,-3576
-1529,5383,-3320
-1785,5895,-3832
775,6920,-4344
1287,7688,-4088
263,7688,-3832
-1017,7943,-3576
-1017,8199,-3832
7,8456,-3832
263,8200,-3576
-249,8199,-3576
519,9736,-4088
775,10248,-5112
1799,10248,-5112
1799,10248,-4600
263,9224,-4344
1287,9736,-4600
1799,11272,-5624
2311,12296,-5880
2823,12296,-5368
2823,12040,-5112
3079,13320,-5624
3591,14088,-6136
3591,13832,-7160
4359,14344,-7160
5127,16392,-7416
5639,18184,-8440
7175,19464,-9720
8967,19976,-10488
9479,20744,-10744
9735,22280,-12024
10759,23816,-12792
11783,24328,-12792
11783,25096,-12536
12039,26632,-13560
12295,26888,-14328
14599,27912,-14328
15879,28424,-13560
15879,28680,-12024
15367,27144,-11512
14343,25096,-11512
13575,24328,-9208
12551,24072,-6904
12039,24328,-5880
12039,22536,-5112
11527,20232,-3832
9479,19464,-2040
8455,18952,-1016
7943,17928,-1016
6919,16136,-504
5383,14856,520
4872,15112,1288
5128,14344,1544
3336,12296,1800
2568,11016,2824
1800,11016,3848
1800,11016,4104
2056,9224,3848
776,7688,4616
-248,7687,5640
-248,8199,5384
264,8200,5640
8,7944,6664
8,6664,7176
-504,6663,6920
-1528,6407,7176
-1016,7431,7688
-1016,7175,8200
-760,7175,8712
-760,7943,8712
-1016,7943,8968
-248,7943,9480
-248,7687,10760
-504,6919,11272
-248,6151,11016
-248,6407,10760
264,7688,11016
8,8968,11528
8,8456,11272
-504,7175,11272
-2040,6151,11528
-2296,6151,11528
-1016,6151,11272
8,6152,11016
-248,6919,10504
-504,6919,10248
-504,6663,9992
-248,5895,9736
-504,5895,9992
-504,5895,9480
-1016,5895,9480
-1016,5895,9224
-1272,6151,8968
-760,5895,8712
264,5896,8456
8,6664,8456
8,6920,8200
-760,5895,7688
-1016,5895,7688
-504,6663,7688
-248,6919,7432
-504,6919,7176
-504,6919,7176
-760,6663,7432
8,6664,7944
8,6920,7944
264,6920,7432
8,6920,7688
-248,7175,7432
-248,7687,8200
264,7944,8712
264,7432,8968
520,8200,9224
1288,8712,8456
1288,8712,8200
8,8456,8456
264,8712,8456
520,8968,8968
2056,10504,9992
3080,10760,10248
2056,10760,9736
776,11016,8712
1800,13064,8456
4360,16904,8712
4872,18440,7944
4872,18440,7688
4616,16904,7688
4872,15880,6408
5128,14856,4616
5128,14856,2056
4872,14600,2056
3848,15112,4104
2312,14600,5640
2568,12808,5640
1544,9992,6152
1544,8712,6920
1800,8456,7176
1032,7176,6408
776,5640,6408
776,4872,5896
-248,5127,5896
8,5384,5896
8,4872,5896
776,3848,6152
520,3848,6408
-248,3847,6408
-504,3591,6152
-248,3847,6408
8,3336,6152
-1016,3079,6408
-4088,1543,8968
-5368,-1529,11271
-4344,-3577,12807
-2040,-6905,15623
1032,-12536,19463
8712,-14328,23303
21512,-10744,28423
-27896,-6904,-32761
-14328,-6904,-25081
-4856,-9976,-13049
2568,-9719,-2297
2568,-9719,2823
-8695,-15352,-8953
-31480,-20728,32519
4872,-22776,22279
-4344,-23033,21511
-22520,-16121,26887
-25080,-13817,-25337
-25592,-17657,-11001
-24312,-20729,-6905
-24312,-22265,-4345
-24312,-19193,-4345
-23544,-14841,-11769
-23032,-15353,-23289
-23032,-18937,31495
-21752,-20985,25095
-20472,-21497,22279
-20216,-20729,16903
-19704,-20985,8455
-17400,-20985,263
-16376,-18681,-2041
-15609,-14585,-761
-12281,-8185,-2041
-8697,-2553,-4089
-5881,1543,-4344
-4345,3847,-3832
-3321,4359,-3064
-1785,5639,-2040
-1785,5895,-1528
-2297,5895,-1784
-3321,5895,-1784
-2553,7687,-2296
-2809,7431,-2296
-1273,7687,-2296
-1017,8455,-2296
-761,8711,-2296
-761,8967,-2296
-2041,9223,-2552
-2297,9479,-3064
-1529,9735,-3064
-761,9991,-2808
-249,10247,-3064
-249,10247,-3320
-249,10247,-3320
-249,10247,-3832
-761,11015,-4344
-761,12295,-4088
7,12552,-4088
1543,12808,-4344
1799,12808,-5112
2311,14088,-5624
2567,15368,-5880
3079,16392,-6904
4103,17416,-7672
4871,19464,-8696
4359,20232,-9208
6663,21768,-11000
6663,21768,-11256
6919,23048,-12280
7687,24072,-13048
8711,25864,-13560
10503,28168,-14072
10503,28168,-15096
10759,27912,-15608
11527,28680,-15608
11783,28936,-14072
11783,28936,-12792
11783,28168,-12280
11015,26120,-10744
9479,24584,-8440
8455,23560,-6904
7687,22024,-5880
7431,20488,-5112
6407,19976,-3576
6151,19464,-1528
5639,18440,-504
4871,16648,8
4616,15624,776
3592,14600,1544
2056,12552,2568
776,11528,2824
776,10248,2824
8,9736,4104
-248,9735,4872
-504,9479,4872
-504,9223,5384
-1528,8967,6152
-2040,8199,6408
-1784,7687,6152
-2296,7687,6408
-2040,7687,6408
-1272,7943,6408
-2040,7431,7432
-1784,7175,7688
-2808,7175,7688
-3576,6663,7944
-2808,6663,8968
-2808,7175,9736
-2808,7175,9992
-2808,7431,9992
-2808,7431,10248
-2808,6663,11016
-2296,6151,11528
-2552,5639,11784
-2296,5383,11272
-3832,5127,11272
-3832,5127,11528
-3064,5383,11784
-2552,5127,11272
-2040,4871,10760
-1784,5383,10760
-2296,5383,11016
-2808,5383,10760
-2552,5383,9736
-3064,4871,9736
-3064,4871,9480
-2808,4871,8968
-2552,4871,8968
-2296,4871,9224
-2296,5383,8456
-2040,5127,8200
-2040,5383,7944
-2296,5127,8456
-2296,4871,8968
-2296,5639,8200
-2296,6663,6920
-2296,6407,7176
-2296,4871,7432
-2808,3591,7176
-3064,4103,7176
-3064,5127,7432
-2040,5895,7432
-2040,5383,7432
-2040,5383,7176
-2040,5127,6920
-1784,6151,6920
-2040,6919,7688
-2552,7175,8712
-1528,7175,8456
-1528,7175,7688
-1272,8199,7176
-1016,8455,7176
-1016,7687,7944
-760,7687,8712
-504,7687,8712
-504,8967,8712
-248,9735,8712
8,9736,8712
-504,9735,8456
-504,11527,7432
520,15368,7176
1544,17160,6664
2824,16392,6920
2824,15112,6920
2312,14600,4616
1544,14088,3848
1544,12808,1288
1544,13320,1288
1544,13832,2312
1032,13576,4104
8,12296,5128
-760,9223,5128
-1016,7431,5128
-1272,7431,5384
-1016,6407,5128
-1016,4871,4872
-1528,3591,5384
-1784,3591,5384
-1528,4871,5384
-1528,4615,5384
-2040,3079,5384
-2296,3079,5384
-2040,3335,5128
-2296,3335,5128
-2040,3335,4872
-2040,3335,5128
-1784,3079,5640
-3320,2055,6920
-5368,263,8968
-6136,-3321,11015
-6136,-4601,12039
-1784,-12281,18183
4104,-13816,20743
16392,-11768,25095
32264,-6648,30215
-18936,-5624,-29177
-8952,-8440,-18681
-1272,-9720,-7673
-248,-9720,-1017
-6904,-14328,-7161
-26616,-18680,-29945
9480,-20216,21255
-12024,-20217,22023
-20984,-15353,24583
-25080,-11513,-31225
-26104,-14841,-15353
-25336,-19961,-8185
-25336,-21497,-5369
-25592,-18937,-3833
-25080,-13817,-10745
-24056,-13561,-21753
-22520,-17145,-31481
-20728,-18425,27143
-19192,-19193,23047
-18936,-20217,17415
-19448,-20473,15111
-18680,-20473,2055
-17400,-18425,-2809
-14841,-14329,-2809
-12025,-9209,-3321
-8441,-3577,-5881
-6393,1287,-6136
-4857,4103,-6136
-2809,5639,-5112
-2297,6151,-3832
-2809,6407,-3576
-1785,6919,-3320
-1273,7687,-4088
-1017,7943,-4600
-1273,8711,-4600
-2041,9223,-4344
-1785,9223,-4344
-1529,9223,-4856
-1529,9479,-5368
-1529,9735,-5112
-1273,10247,-5368
-761,11271,-5112
7,11528,-5368
7,10760,-6136
-505,10503,-6392
-1529,10503,-6648
263,11272,-6904
1031,11784,-6648
1287,12808,-7416
1287,13064,-7672
1543,13064,-7416
1287,13832,-7672
2055,15368,-8952
3847,16904,-9720
4359,17160,-9976
4359,17672,-11000
4871,19464,-12280
7175,21512,-13304
8455,22024,-14072
8455,22280,-14840
8711,24072,-16120
9735,25608,-17400
10503,26376,-17656
11015,27400,-17656
11527,28168,-18168
12551,29448,-18424
13831,29704,-18424
14599,29960,-17912
14087,29704,-16888
13319,28680,-15608
12551,27912,-14840
12039,27144,-12536
12039,26120,-11000
11527,25608,-9464
10503,24328,-8184
8967,22536,-6904
8199,21256,-5880
7687,19976,-4600
6663,18440,-3320
4871,17416,-2808
4871,16648,-2040
4615,16136,-1272
4103,15112,-248
3591,14344,8
3080,14344,264
2056,13576,520
520,12296,1544
8,12296,1800
8,11528,2312
8,10760,2312
264,10248,2312
520,9736,3080
520,9992,3080
-248,9991,3336
-760,9991,4104
-760,9735,4360
-1016,9479,4360
-760,9479,4872
-504,9991,5640
-760,9735,6152
-504,9991,6664
-248,9991,6408
-248,9223,6920
-248,9223,7688
-248,9223,7688
264,8968,7688
1288,9736,8200
1288,9992,8200
520,9992,8200
264,9480,8200
8,8712,7944
776,8712,7944
1032,8712,8456
8,8712,8200
-760,8455,7688
-248,8711,7432
1032,8712,6920
776,8200,6664
8,8200,6664
-504,7431,6920
-760,7431,6920
264,7944,6664
520,7944,6408
776,8200,5896
1032,7944,6152
776,7432,6408
776,7432,6152
264,7688,5640
264,7944,5640
8,8200,5896
8,7688,5640
520,7944,4872
776,8200,5128
776,8200,5384
520,8456,6152
776,8456,6408
1800,9224,6152
1544,9992,6152
1288,10504,5896
1288,10760,5640
1288,11784,5384
1288,13064,5128
2056,13064,4872
1800,13064,4872
2824,14088,4872
3336,14856,4616
3592,16136,5640
4104,16392,5640
5384,15368,5640
5896,15112,5640
4872,14856,6152
2824,13832,7176
2312,12552,8200
2056,11272,8456
1288,9224,7176
776,8712,5640
776,7688,5384
776,5896,5128
776,5640,4360
1032,6408,3848
264,6408,3592
264,6408,3848
264,5896,4104
-248,5895,4104
-760,5639,3336
-1016,5639,3336
264,5640,3592
776,5128,3848
-248,4615,4104
-2296,3591,5384
-3320,2567,6408
-3576,-249,9223
-3064,-4345,12551
-504,-9721,16135
6920,-10744,19463
19976,-8184,25095
-28920,-5368,30471
-14328,-4344,-27897
-3064,-7160,-14841
6920,-9207,-1273
9224,-11255,7431
1545,-16375,-505
-19448,-20984,-27641
13576,-22264,21255
-12280,-21753,21255
-22264,-15353,23815
-26360,-10489,-31737
-27640,-14329,-16121
-26872,-18937,-9977
-25848,-20217,-8697
-25080,-17401,-8697
-24056,-12025,-15609
-23032,-11513,-27385
-22776,-15609,26375
-21496,-17145,19975
-20984,-17401,19719
-20216,-17657,12807
-19960,-17657,4103
-17656,-16121,-3577
-16377,-14329,-5625
-14329,-10489,-4601
-11001,-5369,-5369
-8185,-505,-6905
-6137,2823,-6904
-4345,5383,-6136
-2297,6919,-5112
-761,8199,-4856
-1017,8455,-4600
-1273,8199,-4344
-1017,8967,-4344
-761,8967,-4344
-249,8967,-4088
-249,9479,-3832
-761,10247,-4088
-761,10503,-4088
7,10760,-3832
1543,11016,-4088
2311,12552,-4088
2055,13064,-4344
1031,13064,-4088
775,13320,-4344
775,12808,-5112
1031,12552,-5368
1287,13576,-5112
1543,13832,-5112
2055,13832,-5112
2567,14344,-4856
2823,14344,-4600
2567,14344,-5624
3079,16648,-6648
3591,18184,-7416
4871,18952,-7928
6407,18952,-8696
6663,19720,-10232
7175,22280,-10744
9223,23816,-11000
9991,24072,-11768
10759,25608,-12792
11015,27144,-13816
12295,28424,-14072
14343,29704,-14328
14087,29960,-14328
13575,29960,-14840
13831,30216,-14840
13575,30472,-14072
14343,30728,-13560
14343,28680,-11256
13575,27144,-10232
12039,26632,-8440
11783,25864,-6648
12039,24584,-5368
12039,23560,-4344
10503,22536,-3576
7943,21512,-2808
7687,20232,-1784
7431,18440,-1016
7175,17928,-760
5639,17416,8
4616,15624,1032
4872,14344,1800
3848,13832,2312
2568,12808,3080
2312,12296,3080
2312,11528,3080
2056,11272,3336
2056,11272,3848
776,10760,4616
8,10248,4872
776,10248,4616
1032,10504,5640
1544,10248,5896
1544,9992,5896
1544,10504,6408
776,10760,6920
264,10504,7688
8,9224,8456
-248,8199,8968
264,8200,9736
776,9224,9992
776,9480,10248
264,8968,11016
8,8456,11016
520,8456,11272
1032,8456,11272
1288,8712,11528
1544,8200,11528
264,7432,11528
-1016,6663,11784
-760,6919,11528
1032,7944,10504
520,6920,9736
-248,6151,9736
-504,5383,9736
-504,5127,10248
-504,5895,10248
8,6152,9992
-248,5895,9736
-248,5639,8968
8,5640,8712
-248,5895,8968
-248,5639,8968
-1016,5383,8712
-1272,5383,8968
-1016,5639,8456
-1272,5383,7944
-1272,5383,7688
-248,5639,7688
8,5896,7432
8,6152,7432
-248,5895,7688
-248,5895,7432
-248,5895,7432
-248,6151,7432
-248,6407,7688
8,6664,7944
8,6408,7944
8,6408,7944
-248,6919,7944
8,7432,7432
520,7944,6664
520,7944,5896
-1016,8455,5640
520,9480,5896
520,10760,6152
1032,12040,6152
1800,12296,6152
1800,12296,6408
2312,12296,6920
2824,12040,7176
3080,12040,7176
2312,11272,7688
2568,11272,9480
2312,11272,11272
520,8712,11016
-248,6151,8968
-760,4103,7176
-1784,3591,6920
-1528,3847,7176
-760,4103,7176
-760,4103,6920
-1016,4103,6664
-1272,3335,6408
-1528,3335,6408
-1016,3591,5896
-248,3591,5640
-248,3847,5384
-760,3847,5640
-760,3847,5640
-1272,2823,6408
-3832,7,8712
-6392,-2553,9735
-6136,-5113,11783
-2552,-9977,16391
1800,-14584,20231
8968,-14328,23047
23048,-9464,28167
-26616,-6136,-31481
-14584,-7928,-22009
-6136,-10744,-10745
-760,-10744,-1529
-3832,-12024,1031
-15863,-17400,-12537
25352,-22008,29703
-3064,-23545,20743
-17400,-19193,22023
-22008,-12793,27399
-25080,-13561,-23801
-25336,-18937,-12281
-24568,-22009,-9721
-24312,-22009,-6905
-24056,-21241,-5881
-24312,-14841,-18169
-23032,-16377,-29689
-20984,-19449,26631
-19960,-20729,21767
-19704,-20985,17927
-19704,-20985,11271
-18424,-20217,3847
-17400,-19449,-1785
-17145,-18169,-3065
-14329,-13817,-2297
-9977,-6905,-4345
-6905,-505,-5113
-5625,2567,-5112
-4601,3847,-5112
-2553,5127,-3576
-2041,6407,-2808
-1785,6151,-3064
-2041,6151,-2808
-2041,7175,-3064
-1017,7687,-3064
-505,8199,-3064
-1017,8199,-3064
-1785,8455,-3320
-1529,9223,-3576
7,9736,-3320
-249,9479,-3320
519,9480,-3576
519,9736,-3832
7,10248,-3832
-249,11015,-4088
-249,10759,-3832
263,11016,-4088
1287,11272,-4856
1287,12040,-4856
1287,12808,-4600
1287,12808,-5112
1799,12808,-5880
2823,14088,-6904
2567,15112,-7928
2823,16392,-7928
4103,16904,-8440
4871,17416,-9720
4871,18440,-11512
6151,20488,-12792
7943,22024,-13560
8711,22536,-14840
8711,23560,-15864
8711,25096,-17144
9479,25864,-17400
11783,26632,-17912
11783,28424,-18680
11783,28424,-18936
11527,28680,-17656
11271,27912,-16888
11271,26888,-15352
11015,26888,-13816
11271,27144,-12280
11783,25864,-10232
11527,24584,-8440
10503,23048,-7416
8967,22536,-6136
7431,21000,-4600
6919,18440,-3576
6919,17416,-2552
5383,16392,-1528
3591,14600,-504
3591,13576,264
3848,12296,1032
3336,11528,2056
2824,11528,2312
1544,10760,2824
1032,9992,3080
776,9992,3336
520,9992,4360
776,9736,4360
-504,8711,4872
-1016,8199,5128
-1016,8199,5640
-760,7431,5896
-760,7431,6408
-248,7431,6408
-248,7175,6920
-1528,7175,7688
-1528,7175,7688
-760,6919,7688
-248,6663,8456
-248,6663,9224
-1016,6663,9224
-1272,7175,9736
-504,7175,10248
-248,6663,10248
-1016,6151,10248
-1016,5639,10760
-760,5639,10760
-248,5383,10248
8,5896,9736
-248,6151,9736
-760,6151,9480
-1016,5639,9480
264,5640,9224
520,5640,8968
776,5640,8456
8,5896,8200
-504,5127,8200
-248,4871,8456
-248,5383,8200
-1016,5127,7432
-1528,4359,7176
-1272,4615,7688
-1528,5127,8200
8,5128,7688
1032,5384,6920
1032,5640,6664
-248,4871,6664
-1016,4615,6664
-760,4615,6664
-504,4615,6920
-1016,4871,6920
-1016,5383,5896
-504,5895,5640
-248,5127,5896
-760,4103,5896
-1272,4359,6152
-1272,4359,5896
8,4360,5896
-248,4359,5896
-248,4359,5896
-504,4615,5640
-504,4871,5896
-248,4871,5896
-248,5127,5640
-504,5127,5384
-1016,4359,5128
-1016,3847,5128
-1272,4103,4872
-504,4615,5384
264,5128,5384
8,5384,5384
-1016,5383,5128
-1016,5127,4872
-1016,4871,4872
-760,4871,5384
-760,5383,5896
-248,5895,5896
-248,6151,6408
-504,6407,6408
8,7176,6408
520,7688,6152
264,7944,6408
776,7688,6408
520,6920,6920
1288,7432,7176
1288,8200,7176
776,8968,6920
776,10248,6408
1800,11784,5384
2312,15112,5128
3336,17160,5128
3848,16648,5384
3848,13832,4616
3592,12296,2312
4104,11528,264
3848,11528,-248
2311,12040,264
1288,12296,1800
1288,12040,3336
1032,9992,3592
1288,7688,3336
520,5896,3080
8,5896,3592
264,5896,4360
520,3592,4360
520,2312,3848
-248,3079,3592
-504,4359,3848
-248,4359,4616
8,3080,4360
8,1544,4104
-760,1287,3848
-1784,1799,3848
-1784,1543,3848
-1784,1031,4616
-3064,-505,7175
-4856,-1529,9223
-5368,-4601,10759
-2808,-9465,14599
2568,-12792,18951
9480,-13048,21511
22280,-10232,26119
-26104,-6648,32007
-12024,-6904,-25337
-1272,-9720,-13305
6664,-10999,-1273
5896,-13303,4615
-3831,-17400,-7929
-27640,-20472,31751
5640,-22776,20487
-16632,-21753,21767
-23032,-15097,26119
-23544,-11769,28423
-26104,-17145,-13049
-26360,-21241,-8697
-26360,-22777,-6393
-26360,-19193,-6649
-26360,-14841,-15353
-25336,-16633,-27129
-23800,-20473,27911
-21496,-21241,23047
-20216,-21241,19975
-19960,-21497,13575
-19704,-21497,4871
-18936,-19705,-2553
-17913,-17657,-4089
-15609,-15097,-3321
-12281,-9209,-5113
-8953,-3065,-5881
-6137,7,-5624
-3321,2567,-5368
-2041,3335,-3832
-2041,3847,-3064
-2809,3847,-3320
-2809,4103,-3320
-2297,5383,-3320
-1529,6151,-3320
-249,7175,-3320
-1529,6919,-4344
-1785,6919,-4344
-1529,7431,-4600
-1273,8199,-4856
-1273,8967,-4600
-1017,8967,-4344
-1017,7687,-5112
-1017,7943,-6392
-1273,8967,-6392
-505,9479,-6136
519,9736,-6392
1287,10248,-6392
1287,10248,-6136
1287,11016,-6136
1031,11272,-6392
1031,11784,-7416
1543,12808,-7672
2567,13320,-7416
3591,13832,-7672
4871,15112,-8184
4871,15880,-9720
4871,16648,-11000
6663,18184,-11256
7687,19208,-12024
8711,20232,-12536
9479,22280,-13304
10503,22792,-14072
11271,23816,-14840
12039,25352,-15096
12039,26120,-15352
12039,26632,-15352
12807,26888,-15352
13831,27656,-15352
14087,27656,-14584
14087,27144,-12536
13831,26120,-11000
13319,25352,-9976
13063,24328,-8696
12039,23304,-7160
10503,22280,-5624
8967,20232,-4344
8711,18952,-3832
8967,18696,-2552
7943,17416,-1528
6151,15112,-1016
5383,13576,-504
4103,13064,264
3336,12296,1032
2824,11272,1288
3336,11016,1032
1544,10760,1544
1288,10504,3080
1544,9992,3592
520,8456,3592
264,8200,3592
264,8200,4104
-248,8199,5128
-248,8455,5384
264,8456,5128
-760,7687,6152
-1016,7431,7176
-1528,6919,7432
-1528,6407,7176
-248,6663,7944
-248,7175,8456
-504,7687,9480
-760,7687,9736
-760,7175,9480
8,6920,9992
520,7176,10760
264,7432,11016
520,7688,10760
776,7688,10760
520,6920,11016
776,6920,10760
520,6920,10760
776,6920,10760
264,6920,9992
264,6408,9480
520,5128,9480
264,5384,9736
264,5640,8712
264,5640,8456
1032,5640,8456
1288,5384,7944
1288,5896,7944
1288,7176,7944
1288,7432,7432
1288,6152,7176
1032,5896,7176
264,6152,7176
264,6920,6408
1288,6664,6152
1288,5896,6408
776,6152,6152
264,5896,5640
520,5640,5640
776,6152,5384
1544,6920,5640
1544,6920,5640
264,6152,5896
520,5896,5896
776,6152,5896
776,6152,5896
776,6152,6920
520,5640,7176
264,5640,7176
520,7176,6920
1032,7944,6920
1032,7688,7688
520,7432,7944
264,7432,7688
8,7176,7432
8,7176,7432
264,7176,8712
8,7176,9224
1032,8200,8712
1288,8712,7944
1288,8968,7688
2056,12296,7944
3080,16648,6920
4616,17416,6408
5384,15880,7688
4872,14600,8968
4872,14344,10248
4360,13064,12040
6408,14088,15624
6920,14088,24328
5896,12296,-32248
6408,9224,-23288
6152,5640,-15864
6664,4360,-11000
10760,7176,-7928
16392,11016,-7672
22536,15624,-7928
28168,22024,-8952
-31224,32264,-14840
-23544,-19960,-20984
-16632,-7160,30472
-10232,7944,3849
-4344,23560,-29175
-5881,-31992,-12535
-12026,-24824,-1015
-14587,-18680,-31479
-13307,-12536,26121
-12027,-7416,26377
-15867,-5368,26121
-23291,-5368,25353
-31483,-12024,25353
-32763,-15096,26377
21253,-29176,26121
13317,28424,26121
6661,24840,26377
4613,25864,-26103
6661,18184,2313
6918,3080,32265
3078,-12280,-8696
774,-28664,13832
775,21000,-31480
775,7944,-15352
-249,-1785,-3321
-2809,-7929,4359
-4600,-10745,8455
-5880,-8953,9991
-7928,-6137,12551
-8952,-6393,16903
-8952,-7929,19207
-10232,-12281,20231
-12024,-18425,22023
-12792,-20985,24583
-13304,-21241,25863
-14328,-21753,25607
-15096,-23801,25607
-15096,-24057,27399
-14584,-23801,28679
-15864,-26105,29191
-16632,-27385,30215
-17912,-29177,32007
-18936,-30969,-30713
-19192,-31481,-27897
-19448,-32505,-25849
-20984,30215,-23289
-21752,28935,-19193
-21752,28935,-15353
-22520,27399,-11513
-24056,25351,-7673
-24824,23559,-2553
-25080,22279,2823
-24823,20743,6919
-26103,17927,11015
-27639,15623,15879
-27895,14599,19975
-27895,13575,23815
-27895,11783,27143
-28151,9735,31495
-29431,7431,-31225
-29431,5895,-29433
-29431,4359,-27897
-30199,2311,-26361
-30199,2055,-25081
-30455,1543,-24569
-29431,1799,-24569
-27383,1799,-25337
-26615,1543,-26361
-25335,4103,-27385
-24823,6151,-28921
-23799,6407,-31993
-21239,8199,30983
-19703,11527,28423
-18423,15623,25095
-15863,18695,20999
-13559,20487,17415
-11767,23815,14087
-10487,28167,9479
-8439,31495,4871
-6903,-31225,775
-5879,-27641,-3577
-5624,-24313,-8697
-4344,-21497,-13561
-3064,-19705,-17657
-2552,-16889,-22009
-2552,-13817,-27129
-2296,-11513,-30713
-2296,-10233,31495
-2296,-9721,30727
-2552,-6393,26119
-2552,-5113,23047
-3064,-5113,21511
-3064,-4601,20231
-3320,-3065,18183
-3320,-1785,17415
-3320,-1273,16391
-3320,-1017,15623
-2808,7,14600
-2552,1031,13832
-2296,519,13576
-2552,-249,13319
-3064,-249,13575
-3064,519,13832
-2808,1287,13320
-2296,1287,13320
-2296,1031,13320
-2040,775,13320
-2040,775,13320
-2040,263,13576
-2808,-249,12807
-2552,263,12808
-2296,1031,12808
-1528,1799,13064
-1528,1799,13064
-1272,2055,12040
-1528,2311,11784
-1528,2055,11784
-1272,1543,11272
8,1800,10760
-248,2311,10760
-760,2823,10760
-760,3079,10248
264,3080,10248
520,2824,10248
-248,2823,9480
-248,2823,8968
8,2824,8456
8,3336,8456
776,3848,8456
520,3848,8200
8,3848,7432
8,4104,7432
-504,4359,7176
-504,5639,7432
264,5896,7688
264,4616,7432
-248,3847,6408
-1016,3591,5896
-1016,3847,6152
-248,4359,6664
8,4360,6664
8,4104,6664
-760,3847,5896
-504,3591,5896
8,3592,5896
264,4360,6152
8,4360,6152
-248,4359,6408
-248,4871,6408
-504,4871,6152
-504,4615,5640
-1272,4615,5640
-1016,4359,5896
-1016,4359,5896
-1016,4615,5640
-760,4615,5640
-760,4871,5640
-1016,4871,5640
-1272,5127,5640
-1272,4871,5640
-1016,5127,5640
-248,6151,6152
264,5896,6664
-248,5639,7176
-248,6151,6920
8,6408,6664
264,6664,6920
8,6408,6920
264,6408,6664
520,6408,7176
8,6920,8200
264,7688,8200
520,7688,8200
776,8968,7688
776,11528,6920
776,13576,6408
2312,15624,6664
4360,16904,6920
4104,16136,6408
3336,14088,4360
3080,12296,2312
2568,12040,1800
2568,13320,1032
2312,13832,1288
1544,12040,2824
520,9992,4872
264,9224,4616
8,8200,4104
8,7688,4104
-248,4359,4360
-504,3847,5384
-504,4359,5896
8,4104,4616
8,3592,4360
-760,2823,4360
-1272,2311,4616
-1272,2567,5384
-1016,2311,5384
-1016,2311,5384
-760,2311,5384
-504,1799,4616
-1272,2055,4616
-3320,519,5896
-4600,-2297,8711
-5368,-3833,11015
-5368,-6393,12807
-2808,-10489,16391
3336,-14840,19719
12552,-14840,23815
26120,-9976,28423
-24824,-7416,-32761
-12024,-8952,-24825
-1272,-9976,-15097
776,-9975,-11769
-504,-10232,-8441
-14584,-16120,-25081
24584,-20472,23047
-3576,-20985,19975
-18424,-17657,20999
-23288,-13817,26631
-25080,-13561,-22777
-24568,-16633,-11001
-24568,-20217,-7161
-24824,-21241,-4601
-24056,-16889,-5881
-23032,-12793,-14585
-21752,-16121,-25081
-20472,-20473,32007
-19448,-21497,26631
-18680,-20985,22279
-17912,-20217,15111
-16376,-20217,7175
-15608,-19961,519
-15352,-17145,-1529
-12025,-12025,-2297
-8697,-6137,-5113
-6393,-1785,-5625
-4601,1287,-4600
-4601,2567,-4856
-1529,4871,-4088
-1785,5127,-3320
-1785,5639,-2552
-2041,7175,-3064
-1017,8711,-4344
7,8456,-4344
7,7944,-3576
7,8200,-3320
7,8968,-4088
-249,9991,-5368
7,10248,-5368
-249,10247,-5368
7,10248,-5624
263,10504,-5880
263,11016,-5880
2055,12040,-5624
2311,12296,-6648
2311,11528,-7416
2311,11784,-7416
2311,13064,-7416
2311,13832,-7160
2567,14856,-7416
3079,15112,-9464
3335,15880,-9976
3335,16904,-9720
4871,18952,-10488
4615,18952,-11512
6151,19208,-13304
8199,20488,-14328
8455,21768,-14328
8199,23304,-15352
8199,24584,-16888
10247,25864,-17144
12039,27400,-17400
12039,28680,-18424
12295,29704,-19704
13319,30728,-20728
14599,30728,-20472
14855,31240,-19448
13831,31496,-19192
14087,31496,-18424
14599,30984,-16888
14599,29448,-15096
14087,28168,-13560
13063,27656,-12024
11527,26632,-9976
11015,25096,-8184
11015,23816,-7160
9735,23048,-5368
7943,22536,-4344
7943,20232,-2808
6151,18440,-2040
4871,17672,-1272
4103,15624,-760
2823,14600,-248
1799,13320,8
1544,12296,8
1544,12040,1032
1544,12296,2056
776,11528,3080
520,10248,3592
264,9992,4104
-760,9991,5384
-1272,9991,6408
-1272,10247,6664
-1016,9991,6920
264,9992,7176
520,10760,7432
-248,10759,7432
-1528,8455,6408
-2040,5383,7944
-2040,1031,11784
-2040,-2297,14343
-2808,-3833,15623
-4088,-5625,15623
-3832,-10745,18951
-4856,-13305,21767
-5368,-16377,24327
-7160,-22265,29191
-9208,-27897,-26361
-9208,-30201,-9977
-8184,-29945,9735
-4343,-29945,27655
521,-31736,-19193
4361,-32248,3335
9226,-31736,24583
13322,29448,-31481
16394,21768,-30713
19210,19208,-30713
22026,23304,-29945
19210,26120,-30713
4106,21512,-30713
-14070,12039,-30457
-24822,3335,-30201
-30710,2055,-30201
32522,12295,-30969
-30710,24839,-30969
-28662,32007,20743
-25078,-26361,-3321
-24823,-24569,-10489
-19447,-20729,-17657
-17399,-16633,-19449
-14583,-13817,-13561
-13047,-14073,-14073
-13559,-13817,-28409
-15863,-13305,11783
-17143,-12025,-20473
-16888,-9721,12807
-17400,-6137,-19193
-17657,-2041,23047
-17145,2567,14088
-12793,7943,14600
-8441,12807,19976
-5369,15879,24584
-2809,19719,24584
263,24584,22792
2567,26632,19976
2823,27912,18440
3591,29960,18184
5127,32520,15880
5639,-32504,12552
5895,-32504,9480
6407,-31224,7688
7431,-29944,4616
7687,-29944,2568
8967,-29688,-2296
9478,-27896,-2808
11270,-25848,-5368
13830,-24312,-9208
14598,-24056,-15096
14598,-24312,-19704
15110,-24312,-23544
17158,-23800,-28664
17158,-23288,-32248
15622,-22776,30728
15622,-22264,27656
17926,-22264,23048
18950,-22520,17928
18694,-22264,15112
18950,-21752,13320
20486,-22008,9992
20742,-22008,7944
21766,-22008,7688
22534,-22520,7432
22534,-22520,7944
22278,-22520,9480
22534,-22520,12552
23302,-22520,16904
23302,-24056,22024
21254,-25592,23560
21254,-26872,-31224
21254,-27896,-24056
21254,-29176,-16888
19974,-30968,-9720
17926,-32504,-1784
15878,31240,6920
15367,28680,14088
15111,26376,20744
13319,24584,27656
10247,22024,-31480
10247,20744,-25592
10247,19464,-20472
8199,17416,-16120
6919,16136,-11768
6407,14600,-8184
5895,13064,-6136
5383,12296,-4344
4871,11784,-2296
3847,11016,-504
2567,9224,-248
1799,8456,8
1800,8456,1544
1032,7944,2568
1544,8456,2568
1032,8200,2568
1544,8200,2568
1032,8456,2568
1544,8200,2312
1544,7176,3080
1800,7432,3848
1288,7432,3848
520,6920,4104
264,6920,3848
264,6920,4104
520,6920,5640
520,7176,5640
776,7176,5384
264,6920,5128
520,6408,5384
520,6664,5896
520,6664,6408
520,6408,6152
520,6408,6408
8,6408,6152
-504,6151,6152
-248,7175,5896
-248,6407,5640
-248,5383,5384
520,5128,5896
-248,5127,6408
-248,6151,6408
-248,6919,6408
-248,6407,5896
520,6408,5384
776,6408,5384
264,6664,5640
264,6920,5384
776,7176,5384
776,6664,5640
776,6408,5128
520,6408,5128
-248,6407,4872
-248,6407,4616
-248,6151,5640
-248,5895,5640
776,6408,5384
1032,6664,5384
776,6664,5128
776,6408,5128
264,6920,4872
520,7432,4872
8,6920,5384
-248,6407,5384
520,6408,4872
264,6408,4872
776,6408,4616
264,6408,5128
264,6664,5896
776,6408,6152
776,6408,5640
776,6408,5128
264,6408,4872
-248,6919,5384
264,7688,6152
1544,7432,6152
1544,6664,5640
1032,6408,5896
776,6920,5640
1032,6920,5384
1032,6664,5384
776,6408,5640
776,6408,5384
264,6664,5640
520,6920,5640
520,6920,5384
520,6152,5384
1032,6664,5640
1288,6920,5640
1032,6920,5384
520,6920,5384
1544,6664,5640
1032,6664,5640
1032,7176,5640
1288,7688,5896
1544,7688,5640
1544,7432,5384
1544,7432,5384
1544,7432,5640
1288,7176,5384
1032,7432,5640
1032,7432,5384
1032,6664,5128
1288,6920,5384
1544,7176,5384
1288,7432,5128
2056,8200,4872
2312,7176,4872
1800,7176,4872
1800,7688,4872
2056,7432,4872
1800,7688,4872
2056,7944,4872
2568,7944,4872
2824,8200,4872
2312,8456,5128
2312,8712,4872
2056,8456,4616
1800,7176,4872
1800,6920,5384
2056,7688,5384
2312,7944,5384
2568,8456,5640
2568,8712,5128
2568,8712,4616
2312,8456,4872
2312,8200,4872
2312,8200,4872
2312,9224,4872
2824,9480,4360
3336,9480,4104
3592,9224,4360
2824,9224,4360
2824,8712,4360
2824,8712,4360
3336,8968,4360
3848,8968,4104
3080,8968,4360
2824,8712,4360
3592,8968,4360
3592,8968,4872
3592,9224,4872
3080,9224,4872
3336,9224,5384
3336,9480,5640
3592,9736,5384
4360,10504,5128
4616,11016,5384
4104,10760,5640
3848,10760,5896
3848,11016,6664
3592,10248,7176
3592,11272,7176
3336,11528,7944
3592,11528,8456
3592,11528,8456
3848,11272,8456
4360,11528,7688
5128,14600,6920
5640,17416,6920
5640,18184,7176
5896,18184,6664
6152,17928,6408
6408,16904,4872
6664,15880,3336
5896,15368,2312
5640,15624,1288
5384,16392,2824
4872,15624,4360
3592,13320,4872
1544,11016,5128
264,7944,7176
-504,5639,9992
-1016,2311,12040
-760,-3321,15367
2056,-9208,20231
9224,-11256,23815
22024,-8696,28679
-27896,-4856,-31993
-13560,-4088,-25593
-760,-4856,-15609
8712,-4855,-5369
9224,-4855,519
777,-8695,-8185
-19704,-13048,31751
15624,-16632,17415
-9464,-16633,18183
-20216,-9977,20743
-23288,-4857,31239
-23288,-8953,-18681
-24056,-12025,-15097
-25080,-17657,-13049
-25336,-15609,-12793
-23288,-9209,-22009
-22776,-8953,29703
-22520,-15865,20743
-20728,-17657,16647
-17656,-16889,14599
-17144,-16377,11015
-16888,-16121,5383
-16632,-16121,-1017
-14841,-14329,-4857
-12281,-11513,-5369
-11257,-7673,-5369
-8441,-2297,-6137
-4345,2567,-6392
-2297,5383,-6392
-1529,6407,-5624
-1273,7431,-4344
-505,8711,-3576
-249,8711,-3576
-249,8455,-3320
7,9224,-3576
263,9736,-3832
519,9992,-3832
775,9736,-3576
519,9992,-4344
7,9992,-4344
775,10248,-4600
1031,9992,-4856
1031,10248,-4600
1287,11016,-4856
1543,11016,-4856
2567,11016,-4600
2823,11528,-4600
3079,11784,-4856
2823,11528,-4856
2823,11272,-4856
4103,12040,-4856
5383,12808,-4856
5127,12808,-4856
5127,12808,-4856
5383,13320,-4600
5383,14344,-4600
6151,15112,-4856
6407,15112,-5112
7687,15880,-5112
10247,17928,-4344
10503,18696,-4600
10503,18952,-4856
9991,18696,-4856
10759,18696,-4600
11527,20488,-4344
12807,21768,-4088
13319,22024,-3832
13831,21512,-3576
14343,21768,-3064
15111,23048,-2296
15367,23816,-1784
15623,23816,-1784
15879,23304,-1272
15623,23048,-760
15879,23048,-248
14343,22536,776
13320,21000,1800
13320,19976,2312
13064,19976,2824
12552,20232,2824
11016,18952,3848
9224,17160,4360
8712,16392,4360
8712,16136,4616
8456,15880,4360
6664,14600,4104
5896,14600,5384
5896,14856,5896
5640,13832,6152
5384,13576,5896
4360,13064,6408
3336,12808,7688
3080,12552,9224
3592,12296,9480
4360,12808,9480
4360,12808,9992
3848,12808,11016
3848,12808,11272
3592,12296,11784
3336,12552,12552
3336,12808,12808
3336,12808,13320
3592,12808,13320
4616,12808,13320
4872,12808,13576
4872,12808,13576
4616,12296,13832
4872,12040,13320
4104,12040,12552
4360,12040,12552
4872,12040,12552
5128,12040,12552
5128,12040,12552
4616,12040,12040
3336,11784,11528
3592,11272,11272
3592,11528,11528
3592,11016,11272
3848,10504,10504
4104,10760,10248
3592,10760,10248
2568,9992,10248
2568,9224,10248
2568,8712,9224
2824,8968,8712
2568,8968,8968
2568,8968,8968
2312,9224,8712
2568,9224,8712
3080,8456,8968
2824,8456,8968
2312,8200,8200
2312,8200,7688
2312,8456,7432
2312,8200,7176
2312,8200,7432
1800,7944,7432
1288,7944,7432
1544,7944,7688
1544,7944,7432
1544,7944,6920
1544,7688,6664
1800,7432,6920
2056,8456,6920
1800,8456,7432
2056,8456,7688
3080,8456,6920
3336,8200,7176
3080,7944,7176
2568,8200,7688
2568,8456,8200
2568,9480,8456
3080,9480,8200
2824,8968,8200
2568,8712,7944
2568,10504,7688
2568,12552,6920
3080,12808,6152
3592,12296,6408
4360,13832,6664
4872,15112,6920
5384,16136,7688
6664,16648,7944
6408,15112,7688
5896,14600,7432
5128,15112,7944
4872,15112,9736
5128,14088,11784
4360,11784,12296
2568,8968,10760
2312,8456,9480
2056,7944,8968
1800,6408,8200
1800,5896,7432
1800,5896,7432
1032,6152,7432
520,5896,6664
1544,5384,6664
2312,5128,6664
1800,5896,6408
776,5896,6920
8,4872,7176
264,4104,6920
776,4104,6920
-248,2823,7944
-3320,1287,10248
-4088,-1017,12295
-3320,-1785,12807
776,-9464,18695
6664,-11256,21511
18184,-8952,26119
-31992,-5112,31239
-15352,-3320,-28665
-2552,-5368,-17657
4872,-7671,-4857
6920,-8695,3847
2825,-12535,263
-15607,-17912,-24057
17928,-20472,23047
-9720,-20729,21767
-20216,-15353,23815
-22776,-9721,32519
-24312,-13049,-16121
-24312,-18937,-7417
-24056,-21497,-5113
-24312,-19449,-3065
-22776,-12793,-7929
-21496,-11769,-18169
-20984,-17401,-29177
-19960,-19449,27911
-18168,-19705,24071
-17656,-19449,20487
-16632,-19449,17671
-16632,-19705,3335
-15864,-16889,-1529
-14841,-12281,-1273
-12025,-7929,-1529
-7673,-3065,-3321
-4345,1799,-3320
-3321,4871,-3064
-2041,5639,-3064
-505,6151,-1784
-761,7431,-760
-1017,8199,-1016
-1273,8199,-2040
263,8456,-2040
1287,9480,-1272
775,10248,-1528
263,10504,-2040
519,11272,-2552
2055,11272,-2808
2311,11272,-2040
1543,11272,-1272
1287,11528,-2040
1543,11528,-2808
1799,12040,-3064
1799,12040,-3064
2055,12552,-3320
1799,12808,-3320
2055,13064,-3064
2823,13576,-4600
2823,13832,-4344
2823,14344,-4088
3335,14856,-4344
3079,15112,-5112
3591,16648,-6136
5127,17928,-6904
5127,18440,-7416
5895,18952,-7928
6151,19720,-8952
7431,22280,-10744
8711,24072,-11256
8967,24584,-11256
9223,26120,-13048
10247,27656,-14328
10759,28168,-14328
11015,28424,-14584
11783,28424,-15096
12295,28936,-15608
12807,29960,-15608
12807,30216,-14584
13063,30216,-13048
13063,29704,-13048
12295,27912,-10744
12039,27400,-8952
12039,26376,-6904
11015,24328,-5368
9735,22280,-5112
8967,21256,-3832
8967,20488,-2040
8199,19464,-760
6919,18184,-504
6151,16904,264
5896,16904,1288
5128,16392,2056
4104,13832,2312
4104,12808,2312
3592,12808,2824
2312,12040,3848
2056,10504,5128
1032,9992,4872
776,9736,5384
776,9992,6920
776,10248,7176
520,9992,6920
520,8968,6920
776,8968,7176
1544,9736,7944
264,9480,8968
-504,8967,8968
-504,8711,8968
-248,8711,9736
8,9480,10760
776,9736,11272
1032,9992,11272
1288,9480,11528
1288,9224,11528
1288,8968,11528
264,8968,11784
264,8456,11784
8,7688,12040
520,7432,11784
1544,7432,11784
1800,7688,12040
1544,7688,11784
1032,7176,11272
8,5640,10760
264,5640,11016
776,6664,11016
520,6920,10248
264,6664,10504
1032,6408,10504
2056,6408,9992
1288,5896,9736
776,5896,9992
264,6664,9992
264,6664,9992
520,6408,8968
520,6408,9224
1032,6152,9480
776,6408,8968
264,6920,8200
264,6152,8456
520,5896,8200
776,6408,8456
776,7176,8200
776,7432,8200
1544,7432,8200
1288,6408,8200
776,6408,7944
520,6664,8200
264,6664,8200
520,6664,8200
776,6408,8200
776,6408,8200
776,6408,7944
264,6408,8200
1288,6152,7944
776,5896,7944
776,5896,8200
520,6408,8712
520,6920,8968
776,6408,8968
1544,7176,8968
1544,8200,8712
1032,8456,9736
1288,8456,9992
776,8200,9224
1032,8200,8968
1032,8456,9480
1288,8456,9736
2056,8712,10248
2312,9480,10504
2056,9224,10504
1544,9992,9736
1544,12296,8200
2312,14600,7944
2568,16392,7944
3848,17416,8200
4872,17416,8712
4872,15368,7944
3592,12552,5384
3848,12808,3848
3848,14344,3080
3848,14856,4872
2312,13320,6152
520,11528,6408
776,11016,6920
1032,9224,7176
1032,6664,7688
776,5384,7944
264,5128,8200
-248,3847,8456
-248,2567,7944
-504,2567,7176
-248,3335,7688
-248,4359,7944
8,4360,8200
8,2824,8456
8,2568,8200
8,2568,8200
-760,2567,8456
-1784,1543,8712
-3064,-1017,10759
-3832,-2553,13063
-4344,-3577,14599
-3576,-8185,17927
-1272,-10745,18951
9224,-14072,25607
21512,-10744,30471
-27896,-6392,-30969
-13304,-5880,-23801
-2296,-8952,-12537
5640,-8951,-2041
5640,-9207,3591
-4599,-14328,-7673
-25592,-17656,-30969
9736,-18168,23815
-12536,-16121,24583
-19192,-9977,28167
-19960,-7417,-24057
-20728,-11769,-8953
-21240,-15865,-4089
-20984,-16121,-1273
-19704,-12537,-1273
-18936,-9209,-8697
-17912,-10233,-20729
-17656,-14329,-30713
-16632,-16377,29191
-13816,-16633,26119
-13560,-16377,19719
-14072,-16121,11271
-12792,-15865,8967
-11256,-13817,1543
-8440,-9977,1287
-6904,-4345,263
-3832,263,-760
7,3848,-504
2823,7432,8
3848,9480,776
2824,9736,1544
3080,9224,1544
3848,8968,1800
3592,10248,1544
3592,11528,776
3848,11528,776
4104,10760,1032
3848,10760,1032
4616,12296,1032
4360,12808,264
4104,12552,264
3848,12552,264
4104,12552,264
5128,14088,8
5384,14856,-760
5383,14344,-1016
5639,13832,-760
6407,13576,-504
5639,15112,-504
6919,16136,-504
6919,16136,-1528
6663,15880,-2040
7687,16392,-1784
8711,18184,-2296
9223,19976,-3320
8967,19720,-4344
9223,19208,-4856
9735,20744,-5368
10759,22024,-6136
12039,23048,-7416
12807,24072,-7928
13319,24584,-8696
14343,26632,-9464
15367,28680,-9720
15879,28680,-10744
15879,28680,-11256
15879,29960,-11256
15879,31240,-11512
16647,30984,-11768
17671,30216,-11256
18439,30472,-9976
18439,30728,-8184
18951,30984,-8184
16647,28936,-5880
16391,27400,-4600
15111,25608,-2552
14343,24840,-1528
14599,24584,-1528
13575,23816,-248
12551,22280,1288
11016,21000,2312
9736,20232,2824
8968,18184,3336
7432,16904,4360
6152,16136,5128
5896,15624,4872
5896,15368,5384
5896,14344,5896
5384,13576,5896
4104,13576,5896
3592,13064,6408
4104,12040,7432
3592,12296,8200
2824,12040,8200
3080,11272,8200
3848,11272,9224
4104,11272,9992
4616,12296,10248
2568,12296,10248
2568,11016,10248
2056,9480,11528
2056,9480,12552
2824,11272,12552
3336,12296,12296
3848,11272,12296
3080,9992,13064
2824,9736,13320
3080,10504,13576
3336,10760,13576
3080,10248,14088
3080,9736,14088
3592,9736,13064
3848,9480,12552
3592,9736,12296
3336,10248,12552
3080,9480,12552
3080,8712,12552
3336,8712,12296
3336,8712,12040
2312,8712,11784
2312,8712,11528
2568,8200,11272
3848,8200,10760
3080,7944,10760
2824,8456,10504
1800,8456,10248
1800,8456,9992
2568,8968,9992
2568,9224,9992
2568,7944,9480
2824,7432,9480
2568,7688,8968
2056,7432,8712
1544,7944,8968
1800,7944,8968
1800,8200,8712
2312,8712,8456
2056,8456,8456
2056,8200,8456
2056,8456,8456
1800,8456,8712
2568,8968,9224
2568,9480,10248
1800,9736,10504
1800,9992,9224
2568,9992,8712
2824,9992,8968
3336,10248,9224
2312,10504,10760
3336,10760,10504
3336,11528,9992
2824,12296,9736
2824,13064,8968
4104,15624,8968
5896,18696,8712
6664,19976,8712
5896,19208,8968
5640,17160,7432
5128,14344,5640
4360,13832,3848
5384,15880,2568
5640,16648,3592
3848,14600,4872
3592,13064,5896
2568,11272,6664
776,9480,6920
1032,8200,6920
1288,6920,7688
1032,5896,7944
776,5128,7944
776,4872,7432
1800,4872,7176
2824,4616,7432
1288,4616,7176
1288,5384,6920
264,4872,7432
-248,3335,7688
8,3336,7432
1032,3592,7432
776,3336,7688
-1272,2567,7688
-3064,1031,9736
-5112,-761,12551
-4856,-2809,14599
-3832,-7673,17671
264,-12792,21255
10504,-13048,24839
24840,-9976,30727
-25336,-6648,-29945
-11256,-6392,-21753
1544,-9463,-8697
9992,-10743,3591
9993,-12023,10503
-1527,-17400,-3065
-25080,-21752,-30201
7688,-22776,22791
-13816,-19705,24583
-17400,-16889,25095
-25848,-11257,-23033
-26616,-15865,-8441
-25592,-18937,-5369
-26104,-19193,-3577
-26104,-16633,-3577
-25080,-13049,-13305
-23288,-13049,-26873
-21752,-16377,29447
-20984,-18681,24583
-19448,-19705,22023
-18936,-18681,15623
-18168,-17913,5895
-17144,-17657,-761
-15609,-14841,-2041
-13817,-11001,-1529
-11257,-6137,-2553
-7417,-761,-2297
-4857,2311,-1528
-3065,4871,-1528
-1017,6663,-1272
7,7176,8
264,7176,776
8,7432,264
-248,7943,8
8,8712,264
8,8968,520
264,8968,8
8,8712,-248
-249,8455,-1016
263,9992,-760
775,11016,-504
775,11016,-760
775,11272,-760
519,11528,-760
1031,11272,-760
1799,11528,-504
1799,12040,-760
1543,12296,-1016
1287,12808,-1528
1287,12808,-1528
2311,12808,-1784
3335,13320,-2552
3335,15368,-2296
2567,16136,-2040
2823,15880,-2040
4615,16136,-3064
6663,17416,-4600
6919,18952,-5624
7175,20232,-5624
8199,20488,-5880
9223,23304,-7160
10503,24840,-8184
10503,25352,-8184
11271,25864,-8440
12807,27144,-9976
13063,28424,-10744
13063,29448,-11000
13831,29704,-10488
14343,29704,-9976
14343,29448,-9208
13831,29192,-7672
13319,27656,-6648
13319,26376,-5880
13575,26120,-4344
13063,25096,-3320
11527,22792,-1528
9991,21256,-760
9223,21256,-248
9479,21256,776
7432,19720,1288
5640,18184,2056
5640,17416,2312
5640,16648,3336
4616,15112,4104
4360,14344,4104
2312,12808,5128
2312,12040,5896
2312,11784,6408
1800,11528,6152
1544,11272,6408
1288,12040,6920
1288,11784,7432
1544,10504,7944
776,10248,8456
264,10248,8456
264,10248,8712
8,9992,9224
-248,9991,9992
-248,9991,9992
8,9992,9992
8,9992,11016
8,9736,11528
-248,9735,11784
520,9736,12296
1032,9992,12552
520,9992,12808
776,9992,12808
776,9736,12808
520,8456,12808
776,8456,12552
776,8968,12552
1032,8968,12552
1544,9224,12296
1544,8968,12040
1544,8712,11528
1800,9480,11528
1800,9224,11528
1800,8456,11272
1544,7944,9992
520,7944,9480
520,8712,9480
2312,9736,9480
3080,9736,9224
2312,8712,9224
1032,7944,8456
1032,7944,7944
2568,9480,7944
2312,9736,7944
776,9480,7432
776,9736,7688
1288,9480,7432
1288,8968,7176
1800,8712,7176
1544,8712,7688
2056,9224,7432
2312,9480,7432
2312,9224,7688
2056,9224,7688
2056,9224,7432
2056,9224,7688
2056,9224,8200
2312,9480,8200
2056,10504,7944
2056,10760,8456
1800,10504,8456
520,9992,8456
776,9992,8200
2056,10248,8712
2312,11016,9736
2312,10760,9992
1800,10760,9992
776,10504,10248
1032,11016,9736
1288,13832,9224
2056,17672,8712
3080,18952,8712
3848,17160,9736
3848,14856,8968
3080,14344,6408
2824,13576,4104
2568,13064,3592
2312,12808,5640
1032,12808,7432
1032,12296,7432
8,10248,7432
-248,8455,8456
-504,7687,8968
-1016,6663,8200
-1272,5127,7688
-1272,4103,7432
-1272,3847,8200
-760,4871,8456
-504,5127,7944
-760,4359,7944
-1016,3335,7688
-1272,3079,7432
-1528,4103,7944
-1272,3847,8200
-1272,3079,7176
-1528,3079,7176
-1272,2567,8456
-2808,1543,11016
-5880,-1273,12295
-6136,-4089,13831
-4344,-4601,14855
1544,-12024,21767
9224,-12536,25095
22024,-10232,29191
-26616,-6648,-31737
-12024,-5880,-23289
-2808,-7928,-11769
2568,-8439,-1273
520,-10743,2567
-8695,-16120,-9721
32008,-18936,-32505
8,-20216,22791
-17144,-17913,23303
-22008,-11513,27911
-25080,-10745,-23033
-25848,-15353,-9209
-25592,-19961,-5113
-25080,-21753,-2809
-24312,-17401,-2553
-24312,-12793,-10745
-23032,-14073,-23033
-21240,-18169,32263
-19192,-19193,27143
-18936,-19449,24071
-19960,-19961,16647
-19704,-19961,13575
-18168,-18937,1799
-16120,-17145,263
-14328,-12537,263
-10232,-5625,-1017
-6393,-505,-2297
-5369,2567,-1528
-4345,5127,-1272
-3065,6663,-248
-2553,6919,1288
-2808,6919,1032
-2808,7687,8
-1784,8967,-248
-505,9479,-248
-249,9479,8
-1528,9735,8
-2296,9735,-248
-1273,9479,-504
-1273,9735,-760
-1529,9735,-760
-1273,10759,-760
-761,11783,-1016
1031,13320,-1272
1287,13576,-1528
-505,12551,-1528
-1785,12039,-1528
263,12552,-1784
775,13320,-2296
1031,14088,-2040
1031,14600,-2040
1031,14600,-2808
2055,15112,-3064
2567,16136,-3064
2823,17160,-3320
3079,17928,-4600
3591,18696,-5624
4871,19720,-5880
5895,21768,-6904
7175,23816,-8440
8455,24584,-9464
9735,26120,-9976
9735,27400,-10744
9223,27400,-11512
9223,27400,-12280
10503,28424,-12792
12039,30472,-13048
12295,31752,-13304
11783,31496,-12536
11527,29704,-11256
11783,29960,-9976
12039,30216,-9464
12551,29960,-7672
11527,28424,-6648
9991,26632,-4600
9223,24840,-2808
9223,23816,-2040
8199,22536,-1016
6663,20744,264
5896,19976,1288
5128,19464,2056
3592,17928,2824
2568,15880,3336
2312,14856,4360
2056,14600,4616
1800,13832,4616
1544,13064,5128
264,12296,6408
8,12296,6920
8,12296,7176
-760,10759,7432
-1272,10247,7688
-1528,10247,8712
-1784,10247,8968
-1528,10247,9224
-1528,10247,9224
-2296,9991,9224
-1528,9991,9992
-1528,9991,10248
-1528,10503,10760
-1272,10503,11016
-1528,9223,11784
-1784,8967,12296
-1528,8967,12808
-1016,9479,13064
-1016,9735,13576
-1784,8967,13576
-2296,8455,13320
-2296,8199,13064
-1016,7687,13320
8,7944,13832
-1272,7687,13832
-2552,6663,13576
-1528,6663,13320
-760,7175,12808
-760,6663,12296
-1016,6407,12296
-1272,6407,11784
-1272,6663,11528
-1528,6919,11528
-1784,7431,11528
-2040,7431,11528
-1784,6919,10504
-1528,6919,9992
-1784,6919,10248
-2040,6919,10248
-2040,6919,9736
-1784,7175,9480
-1272,7175,8968
-1272,7431,8968
-1528,7175,8968
-2040,6919,8712
-2040,7175,8712
-1528,7431,8712
-1528,7687,8456
-1272,7687,8456
-1272,7687,8200
-1272,7943,8200
-1528,7943,8456
-1528,8711,7944
-2040,8967,7688
-2296,8711,8200
-2552,8455,9224
-1784,8711,9480
-504,8455,8968
-760,7943,8712
-2040,7943,8968
-1528,9223,9224
-1016,9479,9480
8,10248,9480
520,11016,9224
-504,10759,9224
-248,12807,8456
264,15880,7176
776,17928,6920
2056,18184,7432
2056,16392,7688
1544,14344,5640
2056,13832,2824
1800,13832,1800
2312,15112,2056
2312,15112,4104
8,13576,5384
-1528,11783,5640
-1528,9735,6408
-1272,8711,6664
-1272,7943,6408
-1272,6919,5640
-1528,5383,5640
-1272,4871,6408
-1528,4871,6408
-2296,4871,6152
-2296,4615,6152
-2296,4359,6152
-2296,5383,6152
-1784,5383,5896
-1528,5639,6152
-1784,4103,6152
-2552,2823,6152
-3320,2823,6152
-4600,2311,7944
-6392,7,10504
-6904,-2041,12039
-5880,-5881,14855
-1784,-10489,18695
4872,-13304,21767
14344,-11768,25863
27656,-7672,31239
-22520,-4088,-28409
-11512,-5880,-18937
-4344,-9208,-8697
-2296,-9464,-1273
-7672,-11256,-4601
-23800,-16632,-25593
13576,-19960,22791
-11000,-19705,21511
-16888,-17145,22023
-24568,-7673,31751
-26360,-11769,-17145
-26616,-17913,-8185
-25592,-18937,-5881
-24312,-16633,-4345
-23800,-12281,-8441
-23800,-12537,-18425
-23288,-16377,-28921
-22264,-17913,28167
-20472,-18681,24327
-19192,-19705,19207
-19192,-19961,11783
-18680,-19193,3591
-16632,-16889,-1017
-15097,-14329,-1017
-14073,-10233,-1273
-10745,-3321,-2809
-6649,1799,-3064
-4601,3847,-2808
-4345,4615,-2552
-3577,6663,-1272
-2297,8711,-248
-2041,8455,-504
-2553,7175,-1784
-3577,7175,-2552
-3065,9223,-1528
-2809,9479,-1528
-2041,9479,-1784
-1273,9991,-2296
-1529,10247,-2552
-1529,9991,-2552
-1785,11015,-2552
-1785,11271,-2552
-1273,11527,-2552
-761,11271,-3320
-761,11271,-3320
-505,12039,-3576
263,12808,-3832
263,12552,-3832
7,12296,-3576
-505,12807,-3320
-505,13063,-3832
1031,13832,-4600
2055,15368,-5112
2311,15880,-5112
2055,16392,-6136
2567,17928,-7416
3847,19208,-8184
4615,19720,-8440
3847,19720,-8696
7175,22792,-11256
7687,24584,-12536
8455,26120,-13304
10503,26632,-14072
10759,26888,-15096
10503,27912,-15352
11271,29192,-15608
12551,29448,-15608
12807,30216,-15352
12295,30984,-15096
12295,30728,-14328
12807,29960,-12792
13063,29192,-11000
11783,28680,-9720
10503,27912,-7928
9735,26376,-6136
8967,24328,-4856
7943,23048,-3320
6663,21512,-1784
5895,20744,-1016
5383,19976,-248
5127,19464,8
4360,18440,776
3848,17672,1800
2312,16392,2312
2312,15368,2312
2056,15624,2824
1288,15368,3336
520,14600,4104
8,13320,4872
8,13064,4616
264,13064,4360
264,13064,5128
-504,13063,5640
-760,12807,5640
-760,12551,5640
-760,12039,6408
-504,12039,7432
-760,12295,7432
-1272,12551,7688
-1272,11783,8456
-1016,11271,8712
-1272,11527,8968
-760,11271,9224
-248,11271,8968
-504,11527,9992
-760,10759,10504
-248,10759,10504
264,11528,9992
-248,11527,9736
264,10760,9992
-248,10759,11016
520,10760,10760
1032,10248,9992
1032,10248,10248
1288,10504,10504
520,10504,9736
8,10760,8968
-504,10247,9224
-248,8711,9224
-504,8967,8712
-248,9223,8712
520,9224,8968
776,9480,8712
776,9992,8456
520,10504,7432
-248,10247,6920
-248,9735,6920
-504,9479,7432
-504,9479,7176
8,9992,7176
264,9992,7176
8,9736,7176
264,9992,6920
-248,9991,6664
-248,10247,6152
-504,9479,6408
8,9224,6664
-248,9991,6920
8,10248,6920
264,10504,6664
264,11272,6664
264,11528,6664
520,11528,7688
520,11528,8200
1288,11528,7688
2056,12040,7432
1544,12040,7944
520,12040,8456
520,12296,8712
1032,12552,8712
1288,13064,8712
1544,14088,8712
1800,14344,8712
1544,16136,7944
2056,18952,7176
3336,20488,6664
4872,19976,6920
4360,18184,6664
2312,16904,6920
3080,16392,2568
4104,17160,1288
4872,17928,2056
3848,16392,3592
1544,15112,4872
1032,14088,4872
1288,11528,4616
1288,10248,5640
8,10248,5640
-504,8967,5128
-504,7687,5128
8,7176,4872
264,7432,4872
264,7176,4872
264,7176,4616
-248,7175,4616
-504,7431,4616
-760,7175,4872
-504,7431,5384
520,7432,5128
776,6408,4616
-1272,4615,4616
-3064,4103,6152
-4600,3335,8712
-5880,2055,9736
-5112,-3577,12295
-3576,-7929,16391
3336,-9720,20231
15112,-7928,24583
28936,-5112,29191
-21752,-2808,-30201
-7672,-4088,-19193
3848,-6647,-5625
9224,-8439,5127
3849,-12023,4359
-10487,-16376,-16889
26632,-18680,25095
-4344,-18681,20231
-20472,-13817,22791
-24312,-7161,30471
-25848,-7417,-19193
-25848,-13049,-9977
-26104,-17145,-7417
-26104,-16377,-5113
-24312,-10489,-8697
-23288,-7929,-20473
-23032,-11769,32519
-22264,-15353,24583
-19192,-15353,21511
-19192,-15353,20999
-19192,-15609,8967
-19448,-15865,7
-17400,-13305,-3577
-14841,-10489,-3065
-12537,-6393,-3577
-9465,-505,-5369
-6393,4615,-5368
-3577,7431,-4856
-2041,8199,-4600
-2041,8455,-3320
-1273,9479,-2296
-761,10503,-2552
-761,11015,-3064
-249,11015,-2808
263,10760,-2808
7,12552,-3064
263,13064,-3064
7,12808,-3064
7,12552,-2808
263,12808,-3320
263,13320,-4344
1031,13832,-4344
1031,14856,-3576
1543,15112,-3832
1031,15368,-3832
1031,15112,-4088
1287,15112,-4088
2055,15880,-4344
2311,16904,-4600
2567,17672,-4856
2567,17160,-4600
2823,17160,-4344
3591,17672,-5624
3591,18440,-6392
3847,20232,-6392
4359,21256,-6136
6407,21512,-7160
7943,22792,-8440
8455,24072,-9464
8199,24840,-9720
9735,26632,-10488
10503,27400,-11768
10759,27656,-12536
11015,28936,-12280
12039,30984,-12536
13831,-32760,-13304
14343,-32504,-13816
14087,-32760,-13816
14087,32520,-13816
13831,32520,-13048
15623,32008,-10488
14855,31240,-9464
13319,29960,-8184
13063,28680,-6136
12551,28424,-4856
11015,27144,-4344
9991,24584,-3832
8455,23560,-2296
7687,23304,-1784
7175,22024,-1528
6919,21000,-1016
6151,19464,264
5384,18696,1544
4616,18184,1800
3848,17160,2056
2824,16392,2824
2568,16136,3592
1800,15368,3336
1800,15368,3592
2312,15624,4104
2056,14856,4616
1800,14088,4872
1032,13832,5384
776,13320,5640
8,13064,6152
264,13064,6408
520,13320,6408
1032,13576,6664
1800,13576,7688
1544,13832,8712
520,13832,9224
-248,13319,9224
-504,12295,9480
264,12040,9736
520,12296,9992
776,12552,10248
1032,12296,10248
1544,12552,11016
1544,13064,11272
1288,13064,11016
264,12808,10760
264,12808,11016
1288,12808,10760
1032,12296,10248
1288,12552,9736
1288,12552,8712
1288,11016,8968
1544,11272,9224
1544,11784,8968
1032,11528,9224
776,10248,8712
264,9992,8456
264,10248,7944
1032,10760,8200
2056,10760,7688
1544,11016,7432
776,11528,7176
520,11272,7176
776,11272,7176
776,11272,7432
776,11272,6920
1032,11528,6664
1288,11784,6920
1544,11784,6664
1544,11784,6664
1544,12040,6664
1544,12040,6664
1288,12040,6920
1544,11784,7176
2312,12808,7944
2312,13064,8200
2312,13832,8200
2568,14344,8456
2568,14344,8200
1288,14344,7688
2312,15624,6152
3848,15880,6152
4104,17672,7432
3848,18440,7432
3592,18696,7176
4360,18696,7432
5128,18440,7688
5896,18440,7176
4872,18184,6664
4360,16648,6920
4872,16648,9224
4872,16392,10760
3336,13832,10248
1800,11784,7688
1032,10248,6408
1288,9480,6152
1288,9480,6408
776,9480,6664
776,9480,5896
520,9480,5640
776,9480,5896
264,7944,5640
-248,7175,5384
8,8456,5384
264,8712,5384
264,8968,5640
-248,8455,5384
-760,8199,5384
-1784,7175,7688
-3576,5127,11528
-4600,2823,15112
-3320,263,19976
1288,-3832,26631
8456,-5624,-30201
20488,-5624,-17913
-28408,-4344,-6905
-11512,-4344,7943
1801,-7671,29191
12553,-9207,-17657
19465,-7927,-5881
19465,-8439,-11769
5641,-8183,25607
-22263,-5112,5127
17673,1288,5384
7689,13064,14600
3593,23816,19208
265,26888,5896
-503,28679,-28920
-3064,29191,-2808
-4601,29447,-12536
-4857,25607,-21240
-5625,18951,-18168
-5881,10759,-13304
-4345,7687,-6392
-4089,6919,-2808
-4089,6407,-3064
-4601,6919,-4600
-4857,7943,-4600
-5113,8711,-3064
-4857,7943,-2296
-3577,6919,-2552
-3833,6919,-3064
-4601,7431,-3320
-4857,7431,-2552
-4601,7175,-2552
-4345,6407,-3576
-3833,6407,-3832
-4601,6663,-3576
-6905,5127,-3576
-7929,5127,-4600
-7929,4871,-5880
-7929,3591,-5880
-8697,4103,-6136
-9465,4359,-6904
-10233,4103,-7416
-9721,4359,-7928
-9721,4359,-8184
-10233,4359,-9208
-10489,4359,-10488
-11257,3591,-11000
-11001,3335,-11000
-11257,3335,-11512
-12281,2567,-11768
-12793,2567,-11768
-12537,2823,-12024
-12537,2567,-12280
-12537,2567,-12536
-12281,2823,-11512
-12025,2823,-10488
-12025,2567,-10744
-11769,2823,-9976
-12025,3335,-8440
-10489,4103,-6904
-9209,4871,-6648
-9209,5895,-5880
-8953,6407,-4344
-7673,7431,-2808
-5113,9735,-2296
-2553,11783,-2040
-3065,11783,-1528
-4857,12039,-504
-2297,13319,-248
-505,14343,-760
-761,14599,-760
-249,14343,264
264,14088,1032
1544,14344,1544
1544,15880,1800
1800,16648,1800
1032,15112,2312
1032,13832,2824
776,14088,2824
776,13832,2824
776,13832,2312
8,13576,2056
-1016,13063,1800
-2552,12295,1800
-2296,12039,2056
-1272,11015,2056
-1528,10759,1800
-1784,10759,1800
-2040,10503,1800
-2808,10247,1544
-3576,9479,1800
-4088,9223,2568
-3320,9223,3080
-3320,10247,3080
-3832,9991,3080
-4600,9479,3848
-4600,9223,5128
-4344,9223,5384
-4344,8967,5128
-4088,8967,5384
-4856,8455,6152
-5368,7943,6664
-4600,8455,6920
-3832,8967,7432
-3320,8711,7176
-4600,7687,8200
-5368,7431,8456
-4600,7431,8712
-4344,7943,8712
-4088,7943,8456
-4088,7943,8200
-4088,7943,8968
-3832,7687,8712
-3832,6919,8456
-4088,6919,8712
-4088,6919,8968
-4344,6663,8712
-3576,6919,8712
-3064,7175,8968
-2296,7175,8456
-2808,7175,7688
-3320,6663,7432
-3064,6919,7944
-3064,7687,7944
-2808,8455,7688
-2040,8967,7176
-2296,9479,5896
-2808,9479,5384
-2552,10503,5640
-1784,12039,6152
-1272,12807,6920
-248,13319,7688
776,14088,7944
776,14344,7432
8,13320,7176
-248,12807,7176
8,12552,7944
8,12552,9736
-504,12039,11016
-2040,8967,10248
-3064,7175,8712
-3064,7175,8200
-3320,5895,6664
-2552,5127,6152
-2552,5127,6408
-2808,5639,5896
-3320,6151,4872
-3320,5895,4872
-3576,5639,4872
-3320,5383,4616
-2552,5639,4872
-2552,5639,4360
-3064,4871,4104
-4088,4615,4104
-4088,4615,4360
-3576,4615,4104
-3320,4359,5384
-6392,2055,7688
-8440,-761,8711
-8184,-4089,11015
-4600,-8953,15623
2312,-12024,18951
12040,-11512,22535
27400,-7928,28167
-20472,-5112,-29945
-7672,-6904,-18425
-5112,-9208,-14585
4872,-10487,4615
2313,-12791,4103
-13559,-18680,-19193
20744,-22264,23303
-9976,-22265,19975
-23544,-16633,23303
-26872,-10745,30471
-28920,-13305,-19705
-29688,-18425,-9977
-28920,-19961,-7929
-27640,-18681,-6905
-27384,-13561,-11769
-27640,-12025,-22521
-27128,-15353,31751
-24824,-17913,23815
-23544,-18425,20231
-23544,-18169,15367
-23544,-18169,7687
-22008,-17145,-1017
-19705,-15097,-6137
-18425,-12025,-6137
-16121,-7673,-5881
-12025,-2041,-6393
-8185,2567,-6136
-7673,3591,-6136
-6393,5639,-6136
-4345,6919,-5112
-3577,7943,-4344
-3577,8199,-4344
-3833,8199,-4344
-4089,8455,-4344
-3833,9223,-3576
-3577,9735,-3576
-3321,10247,-3832
-3321,10247,-4344
-3065,10503,-4344
-2809,11271,-4088
-2809,12295,-4088
-3321,12551,-4600
-3065,12295,-5112
-2553,12551,-5112
-1785,13319,-4600
-761,14087,-4600
-249,14087,-4856
-505,14087,-5368
-505,14343,-5368
-1017,14855,-5624
-761,15879,-5880
7,16648,-5880
775,16648,-6392
1287,17672,-6904
2311,19976,-7160
3847,21512,-8184
4615,22024,-9208
5127,23048,-10232
5383,24328,-11000
7175,26120,-11768
7687,26888,-13048
7687,27144,-13560
9479,29448,-13816
9991,30472,-14584
9991,30216,-15352
10759,30216,-15608
11015,30984,-15864
11271,31240,-15096
11271,30728,-13560
10503,29704,-12280
10247,29448,-11256
9735,28424,-9976
9223,27400,-8440
7943,25864,-7160
7431,24584,-6392
7431,23560,-5624
7175,23048,-4088
6919,22280,-3320
3847,19208,-2040
2823,18184,-1784
2055,17416,-504
1799,16136,8
1544,14600,264
1288,14088,520
520,14088,1032
-760,13575,2312
-1784,12551,2568
-1784,11527,2824
-1784,11015,2824
-2296,11015,3848
-2552,10759,4360
-2808,10759,4872
-2296,10503,5128
-2040,10247,5128
-2808,10503,5384
-2808,10759,6408
-2552,10759,6920
-2808,10759,6920
-2808,10247,7432
-2552,9991,8712
-2040,9991,8712
-1784,9735,8712
-760,10759,8968
-1272,10759,9736
-2552,9479,9480
-2296,9223,10248
-2040,9479,11016
-2040,9223,10760
-1784,8967,10248
-1016,8967,10504
-760,8967,10248
-760,9479,9992
-760,10503,8968
-1528,11783,8456
-2040,12295,7944
-1784,12039,7944
-1528,12295,7944
264,14088,7944
1032,14600,7944
1032,14088,7688
776,13576,7944
1544,13320,8200
1544,13576,8200
520,13064,8712
-248,13319,11016
-1272,12039,12552
-1784,8967,11272
-1784,8199,10248
-3320,6151,7944
-2808,6407,7432
-3064,6151,7176
-3064,6151,6920
-3064,6151,6408
-4088,5383,6408
-4088,4871,6408
-3832,4615,6664
-3576,4871,6152
-3320,4871,5896
-3832,4871,5896
-4088,4359,5896
-3832,4615,5640
-4088,4615,5896
-4088,4615,5896
-5112,4103,5640
-6392,1543,7176
-7672,-249,8967
-8440,-2041,10759
-6904,-6649,14343
-3320,-12281,17927
3848,-13304,21255
16136,-10488,26887
31240,-7672,32263
-28408,-6392,-31993
-8952,-9208,-13561
-1784,-10232,-761
-2040,-11256,6151
-11767,-16888,-3065
-31992,-20984,-28153
5128,-21752,23303
-18168,-20985,22535
-26872,-15609,25095
-29688,-12537,-29177
-29944,-15609,-14073
-28920,-19449,-7673
-28920,-22265,-5625
-28920,-19961,-5625
-27640,-13561,-12281
-27128,-13561,-23545
-26104,-18681,30983
-24824,-20217,24583
-22776,-19449,20999
-22264,-19193,14599
-22264,-19961,6151
-22008,-20217,-1273
-21497,-17657,-3577
-18937,-12537,-3065
-14841,-6393,-4601
-12281,-4601,-5369
-8697,2055,-5624
-7161,4871,-5880
-5881,6407,-5112
-4601,7431,-3576
-4857,7943,-3064
-5881,7687,-3576
-6137,7943,-4600
-5625,8455,-4600
-4345,8455,-3832
-4601,8455,-3064
-4857,8967,-3064
-4857,9223,-3064
-4345,9479,-3320
-4601,9991,-3832
-4857,9735,-3832
-4345,9991,-3832
-4089,10503,-3576
-3833,10503,-3576
-3577,11271,-3576
-3577,12039,-4088
-3577,12039,-4856
-2553,12551,-5112
-2809,13575,-4856
-2809,13575,-4856
-1529,14087,-5880
-1529,15367,-6392
7,16904,-6392
775,18184,-6904
519,19208,-8696
1031,20232,-10488
2567,21768,-11000
3335,22536,-11256
3591,23816,-12536
4359,25352,-14328
5895,26376,-14840
6407,27400,-14840
6407,28680,-15864
7431,29704,-17400
8199,29448,-18168
8199,29192,-16888
8455,29704,-16120
8711,29704,-15608
8967,28424,-14072
8967,27144,-12024
8199,26632,-9976
7687,25608,-8696
7175,24072,-7160
6919,22792,-5368
5639,21000,-4088
5639,21256,-3832
3847,18440,-2296
3335,16648,-1784
2311,15368,8
520,14600,1544
-248,14087,1544
-1016,12807,2056
-1784,11783,3336
-2552,11271,4360
-2808,11015,4104
-3064,9735,4104
-2552,9479,5384
-2808,9735,6664
-4088,8967,6408
-4600,8455,6152
-4600,7687,6408
-4600,7687,7176
-4088,8199,7176
-4088,8967,7432
-3832,8967,7944
-3576,8711,8200
-4088,8455,8456
-4856,7687,8456
-5112,7431,8968
-4600,8967,9480
-3320,9735,9480
-4600,8199,9992
-4088,6919,9736
-4088,5895,9736
-4088,6663,10248
-4344,6663,10248
-4088,6919,10504
-3832,7431,10760
-3832,7175,10248
-3320,7431,9992
-3064,6407,9992
-3320,4615,9992
-3064,4615,9992
-3064,6151,9992
-3320,6407,9224
-3832,6407,8456
-4088,5383,8200
-4088,5127,8968
-3320,5639,8968
-2808,5895,8712
-3320,6407,8200
-3320,6151,7944
-3320,6407,7688
-3064,6151,7688
-2552,6151,7944
-1272,6407,7944
-2552,6151,7944
-2552,5639,6920
-2296,6151,6664
-2552,6407,6920
-3320,6407,6920
-3576,6151,7176
-3320,5895,7176
-3320,5383,7432
-3064,5639,7176
-3064,5895,6408
-2808,5895,5896
-2552,5895,5640
-2552,6919,6408
-2808,7431,6408
-3320,7175,6408
-3320,6407,6664
-2552,6151,6408
-2552,6151,6408
-2808,6663,6664
-2552,6407,6664
-2552,6151,5896
-3320,6151,6152
-3320,6407,6408
-3576,6407,6152
-2296,6407,5640
-3064,5895,5640
-2552,6151,5640
-3064,6151,6408
-3064,6407,6408
-2552,6663,6152
-2808,6663,5896
-3320,6919,6152
-3576,6663,6408
-3320,5895,6408
-3064,5639,6408
-3320,5639,6408
-3320,6407,5896
-3576,6407,5896
-3576,5895,5896
-3064,6407,5640
-3064,6151,5896
-3320,6151,6408
