-4344,-14073,17927
-4856,-13817,16903
-4856,-13305,16647
-4344,-12281,17927
-3064,-10745,19207
-1528,-8697,19463
-1272,-5881,19463
-760,-6137,19207
264,-4344,18183
776,-1784,13063
1288,264,7688
4360,2824,5896
6920,5640,4872
7688,6664,4360
9224,7176,4104
9224,4872,5384
7688,-248,7175
3848,-5112,11015
-1016,-8441,13831
-3064,-9721,15367
-3064,-11001,16391
-3320,-13817,17671
-4088,-16121,17671
-4088,-16377,17415
-4344,-16377,17671
-4088,-17401,17927
-3832,-17401,17671
-3832,-17145,18183
-4344,-17145,17927
-4344,-16889,18183
-3832,-17401,17927
-3832,-19705,18695
-3832,-20729,19463
-7672,-28153,26631
-7672,-28921,26375
-6648,-25337,20231
-2040,-12025,8967
5128,6408,-6392
14855,24584,-27128
24583,-24568,18184
30471,-21496,6920
-32505,-31224,6408
28167,22792,21000
16903,15368,-26360
8967,8712,-12024
4871,8,-760
2055,-7160,7175
8,-11512,11015
-1784,-14073,13319
-2040,-14073,14855
-1528,-13817,15367
-1528,-13817,15367
-1784,-15097,15879
-1528,-15097,16391
-1272,-13817,16135
-1272,-13561,15879
-1272,-13561,15623
-1272,-14073,15623
-1528,-14329,15623
-1528,-13561,15879
-1272,-12537,15111
-1016,-12281,14599
8,-12536,14343
8,-12792,14087
8,-12792,14087
-504,-13049,14087
-1016,-12793,13319
-504,-12537,12807
8,-12280,12551
8,-12280,12807
264,-12280,12807
264,-12536,12295
264,-12792,11527
264,-12792,11527
520,-12536,11527
776,-12792,11783
776,-12792,10759
520,-12792,10247
776,-12792,9991
776,-12536,9735
776,-13304,9735
1032,-14072,8967
1032,-14328,8711
776,-15864,8711
520,-16632,8967
520,-18168,8199
520,-19192,7687
776,-19960,7687
776,-21496,7943
-248,-23545,7943
-1016,-24569,8199
-2040,-25337,9223
-2552,-26873,8967
-3064,-28409,9479
-3576,-29177,10247
-3576,-28921,11015
-3576,-29177,11783
-4600,-29433,12551
-5880,-29433,13575
-5880,-27897,14087
-5880,-25849,15111
-5624,-24569,15111
-5624,-23801,14855
-5880,-22009,14343
-5112,-19193,13831
-3832,-17913,13575
-3576,-17401,13063
-3832,-17145,12551
-3320,-13561,11527
-2808,-12281,11527
-2040,-12025,11015
-1272,-11769,10247
-1272,-10745,9991
-1528,-9977,9991
-1272,-9977,9735
-1016,-9977,9223
-1528,-9977,9223
-1272,-9721,9735
-1016,-8185,10247
-248,-6137,10503
1032,-3832,10247
2056,-1784,9223
2568,-248,8711
3336,2568,6152
4360,4360,520
5896,5128,-2552
7175,6408,-3064
9479,9480,-4088
12295,11784,-5368
12551,10504,-5112
11783,7176,-3320
8711,3080,8
6408,1032,520
776,-4600,4615
264,-6392,5383
-248,-7417,6919
-760,-8697,7431
-1272,-9209,7175
-1272,-9209,7175
-1272,-9977,7431
-1016,-9977,6919
-504,-9977,6919
-504,-9977,6407
-760,-8953,6151
-760,-9209,6407
-760,-9465,6151
-760,-13305,8455
-3064,-19449,12807
-5368,-22265,15367
-5368,-20217,13063
-2808,-11257,5383
2568,5384,-7416
8455,23304,-25848
15879,-23800,19464
23047,-13304,3592
27399,-16120,-4088
24070,-23800,4104
19975,-27384,9480
7175,23048,-27640
5639,12552,-15352
3335,2568,-6648
1031,-3576,-1273
775,-7160,2311
520,-8952,4615
776,-8952,5383
520,-9720,5895
264,-11256,6919
8,-11000,7175
264,-10744,7431
8,-10744,7687
520,-11000,7431
1032,-11512,7431
776,-11512,7687
1032,-11256,7943
776,-11256,7943
8,-11256,8455
8,-10744,8455
264,-10744,7943
1032,-10744,7943
1032,-10488,7687
1032,-10232,7943
776,-10488,7687
-248,-10489,7431
520,-9464,7175
520,-9976,6919
520,-10232,7431
1288,-9976,7431
1288,-9720,7175
1032,-10232,6919
776,-10744,6663
776,-11256,6407
776,-11256,6663
776,-11256,6663
776,-11768,6407
520,-11768,6663
776,-12280,6919
776,-13816,6407
520,-14584,5895
264,-14840,5639
8,-15864,6407
-504,-17657,6663
-504,-18937,6663
-760,-19193,6407
-1272,-20473,6407
-2296,-22521,6663
-3064,-24569,7687
-3064,-25081,8967
-4344,-25593,8967
-4600,-26361,8967
-5112,-27385,9735
-5368,-27385,11527
-5624,-27385,12039
-6392,-27385,12039
-6904,-26617,12807
-6904,-25081,14343
-6648,-23545,14599
-6392,-22521,13575
-5880,-21497,12551
-4856,-19449,12807
-3832,-17401,12807
-3832,-16121,11271
-3320,-15097,9991
-2808,-14073,9991
-2808,-12537,9735
-2296,-12025,9479
-2296,-11769,9223
-2040,-11257,8711
-1272,-9721,8455
-1528,-9465,8199
-1272,-9465,7943
-1272,-9721,7687
-1016,-9721,7943
-1784,-10233,8967
-248,-7929,8967
8,-6136,9479
520,-3320,9479
3336,-1528,8967
4360,-760,8199
4616,1544,4360
4872,4360,-1272
6663,5640,-3832
8711,6664,-5368
10759,8968,-6392
12039,10760,-6136
12551,9736,-5880
12295,5384,-4600
8967,776,-1272
3335,-2552,2567
-248,-4601,4615
-248,-6393,4871
8,-8440,5383
-760,-9977,6407
-1016,-9721,6407
-760,-9977,5895
-1016,-10489,5639
-248,-10489,5639
8,-9976,5895
-1784,-9977,5895
-504,-9209,4871
-504,-10745,5127
-248,-11001,6407
-1528,-14329,9735
-3832,-19961,13575
-4856,-22265,14087
-4856,-19705,11015
-2552,-7673,2567
3336,8712,-12024
11271,26120,32008
20231,-21496,11784
26375,-14072,-2552
27654,-19448,-6136
22790,-27896,4872
13063,29704,24328
6407,21000,-24056
3591,9480,-12280
1543,-1272,-4601
1287,-6392,-761
519,-9208,2823
264,-9976,4871
264,-10488,5127
264,-12280,5127
264,-12024,6407
-1528,-12025,7431
-248,-12025,7687
8,-12280,6919
264,-12024,6663
776,-11768,7687
520,-12024,7943
520,-12024,7943
520,-11000,7943
264,-11000,7431
8,-11512,7687
264,-11512,7943
-248,-12281,7687
-248,-12281,7687
264,-11512,7431
1288,-10744,7687
1288,-10232,7175
520,-10232,7175
520,-10744,7175
520,-10488,6919
520,-10488,7175
1032,-10488,6919
1032,-10744,6663
1032,-12280,6663
776,-12536,6919
776,-12024,6919
-760,-12281,6663
776,-12024,5895
8,-12536,5895
8,-13560,6407
776,-13560,6663
776,-13816,6151
-248,-15097,5639
-760,-16377,5639
-1016,-18169,6151
-1016,-18937,6663
-1784,-19961,6919
-2552,-21753,6919
-2552,-22777,7175
-2808,-23033,7431
-3832,-24569,8199
-5112,-26873,8967
-5624,-27641,9735
-6136,-27641,10503
-6648,-27897,11271
-7160,-28409,12295
-7416,-27641,13063
-7416,-26361,13575
-6904,-24569,13575
-6904,-23289,13319
-6648,-22265,13575
-7672,-22265,13831
-5368,-19193,13063
-5368,-17913,12551
-4088,-17401,11783
-3064,-16377,10759
-3064,-14585,10503
-2808,-13305,10503
-3064,-13049,10247
-2296,-12281,9735
-1784,-11257,9479
-1784,-10489,8967
-1784,-10489,8967
-1784,-10489,9223
-1784,-10489,9223
-1016,-9721,9223
-504,-8441,10247
-760,-6905,11527
520,-5880,11527
1800,-4856,11271
2824,-2552,10759
4360,1032,6408
5640,4360,8
6664,5384,-3064
7687,5896,-3576
9991,9224,-4600
9479,9736,-4600
12295,8712,-4856
11015,5640,-3320
8711,1800,-760
4615,-3064,2823
520,-6904,5639
-1016,-8697,6407
-1016,-9465,6151
-1016,-10233,6407
-1272,-10489,7175
-1016,-10489,7175
-1016,-11001,7175
-1016,-11001,6151
-1016,-11257,5639
-504,-10233,5383
-248,-9977,5639
-248,-10233,5383
-760,-11001,5895
-3320,-15609,9479
-5368,-20473,13319
-5112,-22521,15111
-5368,-20729,12295
-4088,-10745,3847
2056,5128,-9976
11783,24072,-31992
12807,29192,26888
26631,-15864,-3320
29702,-18424,-8440
26374,-26872,2568
15367,28680,23304
6663,18696,-24824
3591,8712,-12536
2311,-248,-4601
1799,-5624,-249
263,-8952,3079
-504,-9977,5127
8,-9976,4871
520,-9720,4871
520,-9720,5895
-248,-9977,6151
8,-9464,6151
1032,-8440,5895
1032,-8440,6151
520,-8696,6407
520,-8440,6407
776,-8440,6151
776,-8440,5895
776,-9720,7175
264,-9976,7687
264,-9464,7431
-1016,-9209,7431
264,-9208,6663
-248,-9721,6919
8,-10488,7687
8,-10744,8199
264,-11000,7943
264,-11000,8455
-504,-12025,8711
-504,-12281,8455
-504,-12025,8455
-248,-12281,8455
776,-11768,8455
776,-11768,8711
-504,-12793,8711
-1016,-13305,8711
-760,-13817,8967
-248,-14585,9991
-248,-15865,10247
-1784,-17657,10247
-2040,-18425,9991
-2296,-18169,8711
-2040,-18169,7943
-2296,-19705,8199
-2808,-20473,8711
-3576,-20729,8967
-5368,-21241,9223
-5112,-22777,8199
-5112,-22521,8711
-5624,-22009,8455
-5624,-22009,8967
-6136,-22009,9735
-6904,-23033,10247
-8184,-24057,10759
-9464,-24057,12039
-9208,-23289,13831
-9208,-23033,15111
-8696,-22777,15111
-7160,-20985,15879
-7416,-20217,16135
-8440,-19449,15623
-7160,-17913,15623
-6648,-17913,15111
-6648,-16377,14343
-5880,-14841,14087
-5624,-13561,13831
-4344,-10745,12551
-3320,-8953,12295
-3320,-8953,12551
-3320,-8697,12807
-3832,-9209,12551
-4600,-9209,12551
-3064,-8441,11783
-3576,-8185,12807
-3064,-7417,13319
-1784,-6649,14087
-1784,-4345,15623
-1272,-3577,15623
8,-3064,15623
1800,-248,14855
2312,2312,11272
2056,4360,5640
3080,6152,2824
6152,8200,2312
8712,11016,1800
10760,11272,1032
11016,8968,1288
9480,5896,1800
6408,1288,4616
776,-3320,9223
-2040,-6393,12551
-2040,-7161,13831
-2808,-9209,14343
-4856,-13305,14087
-4856,-13305,14343
-2808,-11257,14599
-2552,-11257,14343
-2808,-10489,12295
-2808,-9977,12807
-3064,-9721,13319
-2808,-9721,13831
-2296,-10745,13831
-2296,-11769,14087
-5112,-15609,17159
-7416,-20729,20999
-7416,-23033,22535
-6648,-20729,19207
-3576,-9721,9223
2824,6664,-4856
12295,24584,-24312
22535,-21752,19720
28935,-13048,4872
32519,-19192,-1016
29702,-31224,11016
17671,24840,-32760
8967,16392,-16376
5127,5896,-3320
1543,-3832,5383
-504,-8697,9735
-2552,-12793,13575
-4344,-14329,15623
-4344,-14329,16647
-3064,-15353,18183
-2808,-16121,18183
-3064,-16121,18439
-3064,-15865,18439
-3064,-14841,18183
-3064,-15097,19975
-3064,-15865,21255
-2296,-16377,20487
-2296,-18425,20231
-2552,-18937,20999
-3576,-19193,21255
-3320,-18937,21511
-2552,-17913,20999
-2552,-17145,19463
-2808,-16633,19463
-2040,-16889,19463
-1784,-16889,19463
-2040,-16889,19719
-2296,-16889,19719
-2296,-17145,18695
-1784,-17145,18439
-1784,-16121,18439
-1784,-15609,18183
-1528,-15609,17159
-2040,-15609,17415
-1784,-15097,16647
-1784,-15353,16391
-1272,-15097,16135
-1528,-15353,15623
-1272,-15353,15623
-1272,-15353,15623
-1272,-16377,15111
-1528,-17401,14343
-1528,-17913,14343
-1528,-19449,14343
-1272,-20729,14087
-1784,-22265,13575
-2552,-23289,13319
-2808,-23801,13319
-2552,-25337,13063
-2808,-27129,13575
-3320,-28153,14343
-4088,-28665,14087
-4344,-29177,14599
-4856,-30201,15111
-5624,-30201,15879
-6392,-29945,17159
-6648,-29433,17671
-7160,-27897,17927
-7672,-27385,18951
-6904,-24825,18951
-6392,-22777,18183
-5112,-21241,17415
-4344,-19705,17159
-4344,-18169,17159
-4344,-16377,16391
-4088,-14841,15111
-3064,-14073,14599
-2296,-12793,14599
-2040,-11769,14087
-2296,-11257,13063
-2040,-10489,12295
-1016,-9465,12039
-760,-9209,12295
-504,-8441,11527
-248,-8441,10759
-248,-8185,10503
8,-6904,11527
520,-5112,12295
1544,-3320,12039
2312,-1272,11271
3592,520,10760
3592,2056,9480
4616,4360,4360
4872,5128,2568
7688,6664,-1528
8711,8968,-1272
11783,12040,-2808
12807,12040,-3320
12807,9480,-2552
10503,6408,-248
6151,1800,2824
2312,-2296,5639
520,-4600,7175
520,-5368,7943
8,-6648,8199
-504,-7929,8199
-248,-8185,7943
8,-7672,8199
8,-7672,7943
8,-7416,7431
264,-7416,6919
8,-6904,7175
264,-6904,7431
264,-7416,6151
-248,-9721,7175
-2040,-14841,12039
-4088,-18681,15879
-4344,-18681,14855
-4344,-18681,13063
8,1032,-2552
5639,18952,-17400
14087,-27896,27400
21767,-12792,8200
26119,-12024,-2552
26374,-19704,520
20231,-27896,15624
11783,27144,-32760
6151,16392,-19448
3335,7176,-8440
2567,520,-1528
2311,-4088,1799
1032,-7672,3591
-248,-8441,5127
8,-7672,6407
520,-8696,6663
776,-9464,6663
520,-9464,6919
264,-8952,7687
264,-9208,8199
520,-9976,8455
520,-9720,8199
-248,-9977,7943
-248,-9721,7943
264,-8696,8199
520,-8696,7943
776,-8696,7687
776,-8952,7687
520,-9208,7431
520,-9464,7687
776,-9464,7687
520,-8952,7175
776,-9208,7175
1032,-9208,7175
1032,-9208,7175
776,-9720,7431
520,-9720,7175
776,-9976,6663
520,-10488,6663
520,-10232,6663
1032,-10488,6663
1288,-10744,6407
1032,-10488,6151
776,-11256,6151
264,-12280,6407
264,-12792,6407
520,-13048,6151
264,-14072,6407
520,-15352,6151
264,-15096,6151
-760,-17145,6407
-504,-18681,6407
-760,-20729,6663
-2296,-22521,7175
-3064,-23033,7943
-3064,-23545,7943
-3064,-25337,8199
-3832,-26617,8967
-5368,-26617,9735
-5624,-26873,10503
-5624,-27641,11015
-5880,-28153,12295
-6648,-27641,13319
-6648,-25849,13319
-6904,-24313,13063
-6136,-23033,13063
-5368,-22265,13063
-4856,-20217,13063
-4600,-18169,11783
-3576,-17145,11015
-2296,-15609,11015
-2040,-14073,10503
-2040,-12537,9479
-1784,-12025,8455
-1272,-11513,8455
-1016,-11257,8199
-504,-9977,8199
-504,-9721,7943
-760,-9721,7943
-760,-9721,7943
-1016,-9209,8199
-760,-8441,8455
264,-7160,8967
776,-6392,9479
776,-4088,9479
2824,-1528,8967
3848,8,8456
3848,1544,4872
4616,3592,-760
6407,5384,-3576
8455,7432,-3832
10503,10248,-5112
12295,11528,-6392
12807,10248,-5880
12551,6920,-3832
9223,2312,-504
3847,-2552,2055
264,-5112,4359
264,-6392,5127
1288,-6648,5383
-248,-9977,6151
-248,-9977,6407
-504,-9209,6151
-504,-9209,5895
264,-9208,5639
264,-9464,5383
8,-9464,5127
-248,-9209,4871
-504,-9209,5127
8,-9208,4871
-504,-13305,7943
-3064,-19961,13063
-5112,-21753,14599
-5112,-19449,10759
-1784,-8185,2055
3336,8456,-11000
10247,26120,-30968
18951,-20984,13064
26119,-13304,-2040
28422,-17400,-6392
23558,-25336,4104
13063,30472,23048
6151,20488,-26616
4615,9992,-13816
4615,6920,-10744
775,-4600,-1017
775,-7672,1799
776,-8696,3591
1032,-8696,4615
264,-10744,5127
-248,-12281,5895
8,-11768,6663
8,-11256,6919
-248,-11257,6919
8,-11768,6663
8,-11768,6663
8,-11768,7431
-248,-11769,7431
8,-11512,7431
520,-11000,7175
264,-11256,6663
264,-11000,6919
520,-10488,7175
776,-10488,6919
776,-10232,6919
520,-10232,6663
520,-11000,6407
264,-11256,6407
8,-11512,6663
776,-11256,6663
264,-11512,6919
520,-11768,6919
776,-12024,6151
520,-12024,6151
776,-12280,6407
520,-12024,5895
520,-12024,5127
8,-13560,5127
264,-13816,5895
776,-13816,5895
520,-13816,5639
264,-14840,5127
-248,-16633,5127
-1272,-17401,5127
-1528,-18425,5127
-1528,-19705,5127
-1784,-20985,5383
-2296,-22009,5639
-3320,-23033,6407
-4088,-24569,7175
-4344,-26873,7175
-4344,-27641,7943
-5368,-27641,9223
-6392,-28665,9735
-5624,-28921,9991
-6392,-29433,11783
-6904,-29177,12295
-7928,-27897,13063
-8184,-26361,13319
-7160,-25081,13575
-6136,-23801,13319
-5624,-22521,12551
-6136,-21241,12551
-5624,-19705,11783
-4088,-18425,11015
-3320,-17145,10759
-3320,-15865,10247
-3320,-14841,9223
-3064,-13817,8711
-2808,-13049,8455
-1784,-12793,8711
-1528,-12793,8711
-1784,-12793,8455
-2296,-12793,8455
-2040,-12025,8455
-1784,-11001,8455
-1272,-11001,9479
-1272,-9721,10759
-1016,-8697,11271
776,-7416,11015
2056,-4088,10247
3080,-2296,7431
4104,8,2312
5384,2056,-2040
6919,3080,-3576
9223,5896,-4600
11527,8200,-5624
12295,6920,-5112
12039,4360,-4600
9223,520,-2040
4615,-4088,1799
520,-7160,4359
-504,-9209,5383
-1272,-10745,6151
-1528,-12537,7431
-2040,-13561,7175
-2040,-13561,6663
-2296,-13561,6919
-1272,-12793,6663
-1272,-12537,6407
-1016,-12793,6407
-1016,-11769,6407
-1272,-11769,6151
-1016,-11769,6151
776,-12024,5895
-3576,-20985,12807
-4856,-24057,14599
-6136,-23289,13575
-4856,-15609,7175
776,-248,-6137
9735,18440,-26616
19207,-28152,16136
25863,-17912,-504
29702,-19192,-9208
27654,-26872,-1272
17158,29448,18696
7431,19976,-28664
3847,10504,-16120
2567,1544,-7672
1543,-3832,-2809
519,-6648,1031
-248,-8185,3079
264,-8184,3079
264,-8440,3847
8,-9976,4871
-248,-10233,5639
8,-9208,5639
264,-8440,5383
8,-8952,5639
776,-9464,5895
264,-10488,7175
1288,-10232,6919
520,-10232,6663
-1016,-11257,7175
-1016,-12025,7943
-504,-11769,8711
-248,-11001,8455
-248,-10745,8199
-248,-11001,8199
8,-12280,8199
8,-12536,8967
8,-11512,8711
264,-11768,8711
8,-12280,8711
8,-12280,8455
8,-12280,9479
8,-12792,9735
-248,-13817,9479
-760,-14073,10247
-760,-14841,10759
-1016,-15097,10759
-760,-15609,10759
-1272,-15609,10247
-1784,-15865,9991
-248,-15865,8967
-1016,-16121,8455
-1528,-16121,8199
-2040,-16121,8455
-3320,-17401,7687
-3576,-17401,6663
-3064,-16889,6919
-3064,-17145,7431
-3832,-18937,8199
-5880,-21241,9991
-7160,-23033,10759
-6648,-23801,10759
-6648,-23801,11015
-7928,-24569,12039
-8184,-25081,13575
-9720,-25849,14599
-11512,-26617,15623
-9976,-26105,15879
-9976,-25081,16647
-9464,-22777,16903
-8440,-19705,16647
-8440,-19193,16135
-8184,-19449,16135
-7160,-18681,16647
-6392,-17913,16647
-5112,-17145,16135
-6904,-14841,15111
-4856,-12025,13319
-3832,-10745,13063
-4088,-10233,13063
-3576,-9721,13063
-3320,-9465,13063
-3832,-9209,13063
-3832,-10233,13831
-4088,-11001,14599
-4600,-10233,14343
-4344,-9977,15367
-3576,-8185,17159
-1784,-4601,17159
-760,-3321,17415
8,-2040,16647
1800,-248,14599
2056,1032,10504
2568,3336,5640
4104,5128,3848
5896,7432,3080
8456,8968,1800
9736,8456,1544
10760,5896,2824
7432,1800,5896
7432,776,6152
-2040,-5369,12295
-2552,-7417,14343
-2808,-8697,14343
-3320,-10745,15623
-4856,-13561,15623
-4856,-13561,15879
-4600,-12793,15879
-4344,-12793,14599
-3576,-12537,14599
-4088,-12025,14855
-4088,-10489,14087
-4088,-10233,14599
-3832,-12281,15111
-4088,-16377,17159
-6136,-21753,22023
-8696,-25081,24071
-8952,-25081,23303
-5112,-18937,16903
520,-3832,4359
6664,13064,-12024
16135,-32760,31240
25863,-16376,12040
31751,-17144,2824
32519,-30712,6920
-32761,30728,10248
11527,14600,-20728
6919,5384,-6392
2055,-4856,4615
-2296,-12537,11783
-3064,-15865,15879
-3064,-17913,17927
-2808,-18681,18439
-3576,-18681,19463
-4088,-19449,20487
-3832,-19961,20999
-3576,-19705,20487
-3576,-18681,19719
-3832,-18681,19719
-3576,-18937,19719
-3576,-18169,19975
-3576,-17401,19975
-3064,-16121,18951
-2296,-15097,18695
-2040,-15353,18439
-2552,-14841,18183
-2808,-14329,18183
-2296,-13561,17415
-1784,-13561,17159
-1528,-13561,17415
-1016,-13305,16903
-1528,-13305,16647
-1272,-13305,15879
-1528,-12793,15623
-1784,-13049,15623
-1528,-13305,15367
-1272,-13049,14855
-1528,-12537,14087
-1528,-12537,13575
-1272,-12793,13831
-1272,-13561,13831
-1528,-13305,13319
-1528,-13561,12807
-1528,-14329,12551
-1016,-15353,12807
-248,-15865,12807
-504,-16633,11783
-760,-17145,11271
-1016,-18425,11271
-760,-19961,11271
-1272,-20729,10759
-1528,-21753,10247
-2040,-23033,10503
-2040,-24313,10503
-2296,-25337,11527
-1784,-25081,11527
-4088,-27385,11783
-4088,-27897,12039
-4856,-28409,13319
-5880,-28409,14343
-6136,-28409,14343
-5880,-27385,14855
-6136,-25593,15623
-6136,-23801,16391
-6136,-22521,16391
-5624,-20985,15623
-5624,-19449,15367
-4344,-16889,15111
-3320,-15609,14599
-3064,-14841,13063
-3320,-13561,12295
-2552,-11513,12551
-1784,-10745,11783
-1528,-10745,10247
-1784,-9977,9735
-1272,-8697,9991
-760,-8441,10247
-504,-8697,10247
-504,-8441,9991
-504,-8185,9991
776,-8440,9991
1032,-6648,11271
776,-4856,11015
1032,-2552,11015
2568,-248,10247
3848,1288,8968
4872,3336,5384
5384,5896,520
6152,6920,-1784
7687,7432,-2296
10503,11016,-4088
12295,13320,-4344
12551,12296,-3832
12295,8968,-2296
9479,4872,264
4616,520,3592
264,-2552,6151
8,-4088,6407
8,-5368,6407
-760,-6649,7175
-760,-6649,7431
-504,-6649,7175
264,-6904,7175
520,-6392,6919
-248,-6137,7175
776,-6904,6407
776,-6904,6407
1032,-7160,6663
8,-6904,6663
-2040,-11257,8711
-3576,-17913,12551
-3576,-19705,15111
-3832,-17145,12295
-2040,-5625,3079
3592,11272,-11000
11527,29192,-29688
18439,-17656,16136
23559,-9464,1288
27399,-14584,-4088
25350,-24056,5384
15367,32008,24328
6919,22536,-25336
4871,12808,-14328
3847,2824,-5880
2567,-2552,-249
7,-5624,3079
-248,-7161,4103
1032,-7672,4871
1032,-8440,5895
264,-9208,7175
520,-8952,6663
776,-8696,6663
1288,-9464,6663
1032,-9976,7431
520,-9976,7687
520,-9464,7431
776,-9208,6919
1032,-9208,6663
776,-9464,6919
520,-9208,7175
776,-9208,7175
520,-9208,7431
264,-8952,6919
520,-8952,6663
776,-8696,6919
1032,-8952,6919
1032,-9720,6663
1032,-9720,6151
1288,-9208,6407
1544,-9208,6407
1288,-9208,6151
1032,-9464,5895
1032,-9464,5895
1288,-9464,6151
1544,-9976,5895
2312,-9720,4871
1544,-10232,4871
1800,-10488,5127
1288,-11512,5383
1032,-12024,5639
1288,-12536,5383
776,-13560,5127
776,-15608,4871
8,-16376,4871
-248,-16889,5383
-248,-18425,5383
-760,-20473,5383
-1784,-21497,5895
-1784,-22521,6663
-2296,-23801,6919
-3576,-25593,7431
-4344,-26617,8455
-4856,-26617,9223
-4600,-26617,9991
-5624,-27129,10247
-6904,-26873,11783
-6904,-26105,12807
-6392,-25081,13063
-5880,-23545,12807
-5880,-21753,12295
-5368,-21241,12039
-4344,-18425,11783
-3576,-16377,11015
-3064,-15097,9479
-3064,-14073,8967
-2808,-13049,8967
-2040,-12025,8967
-1528,-11001,8199
-1784,-10745,7687
-1784,-9721,7687
-1016,-8953,7687
-760,-9209,7175
-760,-9209,6919
-760,-8697,6919
-248,-8697,7943
-248,-7929,7943
-248,-6905,8199
776,-5368,8711
1800,-2552,8967
3080,-1016,8455
3848,520,7176
4104,3336,2056
5896,5640,-3320
7431,6408,-4856
8711,8200,-4856
9735,8968,-6392
12551,12040,-7672
12807,9992,-6136
11783,5640,-3576
7687,1288,-1016
2823,-2296,1287
776,-4600,3079
520,-6136,4615
264,-7928,5127
-504,-9721,4871
-760,-9721,4871
-504,-8697,4615
8,-8696,4871
-248,-8953,4615
-504,-9721,4359
-760,-9721,4359
-760,-9465,4359
520,-8696,4103
264,-8440,4359
-2296,-15097,8967
-4088,-20985,12807
-4600,-21241,12807
-4088,-16121,7943
-1016,-4089,-2041
4871,12552,-18168
7431,18440,-23800
23047,-16632,6152
26887,-14328,-6136
27910,-21240,-5624
21766,-28920,9224
11527,27400,28680
5895,16904,-22776
3591,5640,-11512
2823,-1272,-4857
1799,-4600,-1017
519,-7928,2055
264,-10232,3079
264,-10232,3335
520,-10744,4615
776,-10744,5383
520,-11256,5383
520,-11000,5383
264,-11000,5383
264,-11000,6151
264,-11256,6151
520,-11256,5895
520,-11256,6151
776,-11256,5895
520,-11000,5895
776,-11256,6407
1032,-11256,6407
1032,-11000,5895
264,-10744,5639
264,-10488,5383
1032,-9720,5383
1288,-9720,5383
1032,-10488,5895
1288,-11768,5895
520,-11768,5639
776,-10488,5383
1032,-10232,5383
1032,-10488,5639
1032,-11256,5895
776,-12024,5383
1032,-11512,4871
1032,-12024,5127
520,-13304,5639
776,-13304,5639
520,-13304,5127
520,-13816,4359
264,-13816,4103
520,-15096,4615
8,-16376,4871
-1272,-17913,4359
-2040,-18681,4615
-2040,-19449,4871
-1784,-20985,4871
-2296,-22265,5639
-4088,-23545,6151
-4344,-24825,6407
-4600,-26105,7431
-5112,-27129,8455
-5880,-27385,9223
-6136,-27129,9735
-6648,-27385,10503
-6904,-26105,10759
-6904,-24825,11783
-6904,-24313,12551
-6392,-23289,12551
-5880,-20985,11783
-5880,-19705,11015
-5624,-18681,10759
-4344,-17145,10247
-4088,-15609,9735
-3832,-14329,9223
-2808,-13817,8711
-2296,-13305,8455
-2040,-12793,8455
-2040,-12025,8199
-2040,-11257,7175
-1784,-11257,7175
-1016,-9977,7175
-760,-9977,6919
-1016,-10233,7687
-760,-9465,8199
-248,-7929,8711
264,-6392,9223
776,-4088,9479
2056,-2552,9223
3336,-760,8199
4360,1544,3080
5640,3592,-2552
6663,4872,-4344
9223,6408,-4856
11527,9480,-6136
12551,9992,-6648
12295,7688,-6136
11783,4104,-4088
7687,-504,-505
2311,-4856,2823
-248,-6905,4359
-248,-8697,4871
-504,-10489,5639
-760,-11513,5639
-1016,-11001,5639
-1016,-11257,5383
-248,-10489,5127
-248,-10489,5127
-504,-10233,5383
-504,-9977,4359
-248,-10233,4359
8,-10232,4359
-504,-11769,5383
-2296,-17145,9223
-4088,-21241,12295
-4856,-21241,12295
-4600,-15865,6919
8,-1272,-4345
7175,16904,-22264
16391,-29176,20232
24583,-14072,264
29959,-11256,-12024
30214,-16632,-10488
22534,-24312,5896
12039,30728,26888
6407,18696,-23288
3591,7432,-12024
2311,8,-5624
2567,-4088,-1273
1287,-7160,1543
264,-8184,1799
264,-8696,3591
520,-9208,5383
520,-10488,6663
520,-11256,6663
776,-11256,6407
8,-12280,7687
-248,-13817,8711
264,-13816,8967
264,-13560,8455
520,-12280,7943
264,-12024,8199
264,-12536,8455
264,-12536,8711
8,-12536,8711
-760,-13049,9991
-504,-13817,10247
8,-14072,9991
8,-13816,9991
264,-14072,9223
264,-12792,8711
-504,-12281,8199
-760,-11513,7687
264,-9464,6407
520,-8440,6407
-248,-8441,6663
264,-8440,6407
8,-8440,6151
-248,-8953,6151
-248,-8953,5895
-504,-8953,5383
-760,-9209,4871
-760,-9465,5127
-1016,-10489,5639
-1272,-12025,6919
-760,-12793,7175
-1272,-13817,6151
-2808,-15609,6663
-3576,-17401,7175
-3576,-19193,7943
-4088,-21497,9223
-4600,-23545,9223
-4856,-23801,9223
-6648,-24313,9991
-6136,-23545,10247
-5112,-22521,11527
-8184,-24313,11783
-8440,-25849,12039
-7928,-25081,14087
-8440,-23801,15367
-9720,-23545,15623
-8696,-21497,16135
-9976,-21241,16903
-8184,-20729,17415
-7416,-19449,16391
-7416,-16377,15879
-7160,-14585,15111
-6136,-14329,14599
-4344,-14329,14599
-4344,-14841,14855
-4344,-13561,14343
-3064,-10745,13575
-3064,-9977,13831
-4088,-11257,13831
-3832,-11257,13831
-3832,-11257,14343
-3832,-11257,15623
-2296,-10745,15879
-2552,-11001,16391
-3320,-11257,16903
-2808,-8441,17671
8,-3832,16647
1288,-760,15111
1544,-248,14343
1544,-248,10503
1032,520,8968
5128,3336,4872
5896,4872,4104
8200,8712,2568
9992,9224,1544
10504,7176,1544
7944,1800,5128
3336,-5112,9479
520,-6904,12807
-1272,-6905,14087
-3320,-9977,13831
-3320,-11513,14087
-3064,-12793,14855
-3320,-13561,14599
-2808,-13817,14599
-3064,-13561,15623
-3576,-13305,16135
-2296,-12281,15111
-2040,-12281,14087
-2552,-13561,14087
-1784,-13561,14087
-2296,-15609,16391
-5880,-22265,22023
-7416,-27129,25095
-7672,-27641,24071
-8184,-27641,23303
-248,-8185,5383
5640,8968,-10232
16391,27400,-31224
26631,-22776,15880
32007,-22776,6664
32007,29704,8968
25863,18952,24328
16135,13064,-22520
8711,4616,-8440
3079,-5624,1799
8,-12280,8711
-248,-14841,12551
-760,-16121,14855
-2040,-16377,15111
-2552,-15865,15367
-2296,-15609,16391
-2040,-15353,16647
-2040,-15353,16647
-2296,-15097,16135
-1784,-15097,16391
-1528,-15097,16391
-1528,-14841,16647
-1528,-14329,16391
-1528,-13817,15879
-2552,-14073,15623
-760,-13561,14855
-504,-13305,14855
-760,-12793,14599
-1016,-12537,13831
-504,-12793,14087
-248,-12793,13831
8,-12536,13831
8,-12280,13319
-248,-12537,12807
264,-12536,12039
8,-12536,12039
264,-12792,11783
264,-12792,11783
520,-12536,11783
520,-12280,10503
520,-12792,10247
776,-13048,10247
776,-13304,10247
776,-14072,10247
776,-14840,9991
1032,-15096,9479
776,-15864,9223
1032,-16888,9223
776,-17656,8967
-1016,-18425,8967
520,-19704,7943
520,-21240,7943
8,-22520,7687
8,-23544,7943
-504,-24313,8199
-1016,-26105,8455
-1272,-27129,8967
-2552,-28153,9479
-3320,-28665,9991
-3576,-28921,10503
-3576,-29177,11271
-4088,-28409,12039
-5112,-27385,12551
-5368,-26873,13063
-5368,-25593,13575
-4856,-23289,13575
-4600,-21241,13831
-4344,-20217,13575
-4088,-19193,13319
-3064,-17657,13319
-2552,-15609,12039
-2296,-15097,11271
-2552,-14585,11527
-2040,-13305,11015
-2552,-12793,10759
-760,-11769,9735
-1784,-11513,9735
-1784,-10745,9735
-760,-10233,9479
-248,-10233,9479
-760,-9977,9479
-760,-8697,9479
8,-6392,9479
264,-4856,10247
1544,-3064,10503
2824,-760,8967
2824,1288,7432
4104,3848,4616
5640,5128,8
6664,5128,-2808
7687,7432,-4088
9991,11016,-4600
12295,11784,-4856
12807,9992,-4856
11527,7176,-3320
8199,3080,-248
3847,-1784,3335
1032,-5368,5383
776,-5880,5127
-1016,-6393,6151
-1016,-8697,6919
-1016,-8953,7175
-760,-8953,6407
-760,-8441,5895
-760,-8185,5639
-504,-8697,6151
264,-8696,6407
8,-8696,6151
8,-8440,5383
264,-8696,5383
-1784,-13817,9223
-4088,-19705,13063
-4344,-20985,13831
-4088,-17657,10759
-1528,-6137,2055
3848,10760,-12024
11271,29704,-32760
19207,-16632,12296
24583,-11512,-760
26886,-17656,-4088
23302,-26104,6920
13319,29704,25352
6663,19720,-24568
4615,9224,-13048
2823,5640,-9976
1799,-4088,-1017
775,-7160,2311
776,-9464,4103
1032,-9464,4615
1032,-9720,5127
776,-10744,6407
8,-11512,7431
264,-11256,6919
776,-10488,6663
776,-10744,6663
520,-11256,6919
776,-11256,7687
1032,-11256,7687
776,-11256,7175
520,-11000,6919
1032,-10488,7175
1288,-10232,7175
1032,-10744,7431
1032,-11256,7175
1032,-11512,7175
776,-11256,6919
1032,-10744,6407
264,-10488,6407
264,-10744,6407
-504,-11513,6407
1032,-11256,6151
264,-11512,6407
520,-11512,6151
776,-11768,6151
520,-11768,6151
520,-11768,5895
776,-12536,5639
520,-12792,5639
520,-13048,5895
520,-13304,5895
264,-13560,5895
520,-14328,5127
264,-15864,4871
-504,-17401,5383
-504,-17657,5383
-504,-18937,5383
-248,-20217,5127
-1016,-21753,5127
-2552,-22521,6151
-2808,-23545,7175
-3064,-25593,7687
-3832,-27129,8199
-4600,-27385,8455
-5112,-27897,9735
-6392,-28921,11015
-6648,-28921,11015
-6392,-28921,12039
-6392,-27129,12807
-6136,-25593,12807
-6136,-24825,12551
-6392,-23801,12551
-6392,-22009,12807
-4344,-19449,11527
-4088,-18169,10503
-4088,-17145,10247
-3832,-15353,9991
-3576,-14329,9223
-3064,-13305,8455
-1784,-12793,8199
-2040,-12537,8199
-1784,-11513,7943
-1528,-11001,7687
-1784,-11257,7175
-1784,-11001,7431
-1784,-11001,7687
-1528,-10745,7943
-760,-10233,8967
-504,-8697,8967
520,-5624,8711
-248,-4857,8967
3080,-1784,8455
3592,264,6152
4104,3080,8
5896,5128,-4600
7431,5896,-4856
8711,8200,-5112
11271,10760,-6904
13063,10248,-6904
13063,6664,-5112
9479,2056,-2040
5127,-1784,1031
1800,-5112,3079
-504,-7673,4871
-760,-8697,5639
-1016,-9977,5383
-1016,-9977,5127
-248,-9721,5383
-248,-9721,5383
-248,-9977,5639
-760,-9721,5127
-1016,-10233,4871
-504,-10233,5639
8,-10744,5639
264,-10488,4615
-1016,-10489,4871
-3832,-18937,11015
-4856,-21753,14343
-5112,-21753,12807
-3576,-13817,4871
1032,2568,-7416
8455,19464,-25848
17415,-28152,18184
24583,-16376,1032
27911,-16376,-8184
25862,-24056,-248
16902,32264,19464
8199,22536,-29176
4359,12808,-17144
2823,2568,-7416
2055,-4856,-1273
1287,-8696,2311
8,-10232,3591
264,-10488,4359
776,-11000,5383
520,-11512,6663
264,-11512,6407
264,-10744,6151
264,-10744,6919
8,-12280,7687
-760,-12793,7431
8,-12280,7175
264,-11512,7175
264,-11256,7175
520,-11768,7687
264,-11768,7431
776,-11512,6919
1032,-11512,7175
1288,-11512,7431
520,-12024,7431
8,-12280,7687
264,-11768,6919
520,-11000,6663
264,-11000,6407
8,-12024,6151
264,-12280,6407
520,-12280,6151
520,-12536,6151
1032,-12536,6151
776,-12536,6407
520,-12536,6407
520,-13304,6663
520,-14328,6919
520,-15096,6407
264,-15096,5895
-760,-14841,5895
-504,-15353,5639
-760,-16377,5639
-760,-17401,5383
-1016,-19193,5127
-1528,-20217,4871
-2040,-21241,5383
-3064,-23033,6407
-3064,-24057,6407
-3320,-25081,6663
-5112,-26105,7687
-5368,-27129,8199
-5368,-28409,8199
-6136,-29177,9735
-7416,-29689,11015
-7416,-29689,11527
-7416,-29689,12039
-7160,-28665,12295
-7416,-26617,12807
-8184,-25593,13319
-8440,-24057,13063
-6648,-21753,12551
-5368,-20985,12551
-5624,-20473,11783
-5368,-18937,11271
-5368,-18169,11271
-3832,-15865,9735
-2808,-14841,9223
-3320,-14841,8967
-3320,-13561,8967
-2808,-12025,9223
-2808,-11513,8711
-2296,-11257,7687
-2040,-11257,7687
-2296,-11513,8455
-2296,-11513,9223
-1784,-10233,9223
-1272,-8697,9991
-504,-6905,10759
520,-5368,10759
2312,-3064,9735
3080,-248,6151
4104,1288,520
5640,1800,-2552
7175,4104,-3832
9991,7688,-5624
12295,9224,-6392
12295,7432,-5112
11783,4872,-4088
8967,776,-2040
6663,-1016,-761
-249,-7417,5127
-1272,-8953,5895
-1016,-9721,6407
-1528,-11513,6663
-2040,-12537,6663
-1784,-12281,6663
-2040,-11001,5895
-1016,-10233,5383
-504,-9977,4615
-504,-9721,4615
-504,-9209,4359
-248,-8697,4103
-504,-8185,4103
-1784,-11769,6663
-4088,-18169,10759
-5368,-20217,12807
-5368,-18169,10247
-3576,-8441,2311
2568,7688,-11768
11783,25352,-31992
20743,-22776,12040
27143,-14328,-4344
30982,-17656,-10232
26886,-26360,1544
23303,-29432,7944
7175,19464,-26360
4103,8968,-13560
2055,-248,-4601
775,-5624,263
8,-9208,4103
8,-11256,5895
8,-12024,6663
264,-13304,7687
8,-14328,8455
-1272,-14073,8711
-1528,-12793,8967
-504,-13049,9479
-760,-14329,10759
-1016,-15353,11527
-1016,-15609,11271
-1016,-15609,11271
-760,-15353,11527
-1016,-15353,11015
-1272,-14073,9991
-1272,-12793,8967
-1272,-11001,8967
-760,-9721,7943
-504,-8953,7431
-248,-7929,7175
-504,-6393,7175
-504,-7161,7431
-248,-7929,7175
-504,-8697,7175
-760,-8953,7431
-1016,-7929,7943
-504,-6649,7943
-504,-7417,7943
-504,-9209,8199
-760,-9977,8967
-2296,-12537,9223
-2040,-13817,9479
-1272,-12793,9223
-2552,-12793,8199
-2552,-13049,8199
-1528,-13561,8455
-1528,-14073,8711
-2040,-14585,8967
-2808,-15865,8455
-3832,-18425,8711
-4344,-21241,9479
-4600,-22009,9735
-5368,-21753,10759
-5624,-21497,11527
-5368,-22009,11527
-5368,-22521,12295
-7928,-26361,14343
-8184,-26873,15111
-9208,-27641,15879
-9464,-28409,17671
-10232,-28409,18951
-10488,-26617,19207
-8696,-24057,19207
-8696,-23289,19207
-8952,-23289,18695
-9208,-21497,18439
-9208,-18681,17415
-7416,-16121,17159
-6392,-16377,17671
-6392,-16633,17671
-6648,-16121,17415
-6392,-14585,16903
-4600,-12793,15879
-4600,-12537,15879
-4088,-12537,15879
-3576,-12025,16647
-5112,-13049,16903
-4344,-12537,16647
-3832,-12793,17159
-5112,-13049,17671
-4856,-11769,17671
-3064,-7929,18695
-3320,-7161,18695
-1016,-3833,18439
-504,-1785,17671
-504,-761,13575
1800,264,8456
3336,264,6408
6152,4616,5384
7944,8968,3336
8456,7688,2824
10504,5384,4872
8712,2056,7176
2824,-3576,10503
-1528,-8185,13575
-2808,-11001,15367
-3576,-12793,15623
-3832,-12793,16391
-4344,-13305,16647
-4600,-14329,16647
-3576,-15097,16647
-3832,-15097,16903
-3576,-15609,16647
-3832,-16633,16647
-3832,-16633,16903
-2808,-15609,17671
-2808,-16889,17671
-3576,-18169,17927
-6136,-24569,21767
-8440,-29177,25863
-7928,-29177,26375
-6648,-25337,20487
-2296,-13817,9223
4616,3848,-5880
13831,23304,-25848
23559,-25080,18952
30727,-21496,6408
-32249,-31736,6408
27911,22536,20488
17159,15880,-26360
9479,8456,-12536
4615,-1272,-1529
1287,-7928,6919
-504,-11001,11527
-1528,-13561,13063
-2296,-14585,13319
-2552,-13561,14855
-2808,-13817,16135
-2808,-14073,16135
-2552,-14329,15623
-1528,-14073,15623
-1784,-13305,15367
-2040,-13305,15623
-2296,-13049,15879
-2808,-13305,15623
-2808,-12793,14855
-1528,-12281,14343
-760,-11769,14343
-760,-11513,14599
-1016,-11769,13575
-1016,-11769,13063
-1016,-11001,13063
-504,-10745,13319
-248,-11001,12807
-248,-10745,12039
-504,-11001,11783
-504,-11257,12039
-248,-11001,11783
264,-11000,11015
8,-9976,10759
264,-9720,10503
264,-10488,10247
8,-11256,9991
8,-11256,10247
8,-11256,10247
1288,-11000,8967
1032,-11768,8711
776,-12536,8967
-248,-13305,8967
-248,-14585,8967
-248,-15353,8711
264,-15864,7687
520,-17144,6919
8,-18936,7431
-248,-20217,7175
-504,-21241,7175
-760,-22521,7687
-1784,-23801,7943
-2296,-24569,8711
-2552,-25849,8967
-2808,-26361,9479
-3576,-27129,10503
-4344,-27385,11527
-5112,-27129,12039
-5624,-26617,12295
-5624,-25849,13063
-5624,-24569,13831
-5880,-22521,14087
-4856,-21241,13831
-4088,-20217,13575
-2552,-18937,13319
-3320,-16121,13319
-3064,-14329,12551
-3064,-13817,11527
-2296,-12793,10759
-1784,-11513,10503
-1784,-10745,10247
-1528,-11001,9735
-1528,-10233,9479
-1016,-9465,9479
-1272,-8697,9479
-1528,-8953,9223
-1272,-8953,8967
8,-7160,8967
520,-5112,9223
520,-4088,9735
1544,-2040,9991
3592,264,9224
4104,2056,7688
4104,3080,3336
5128,4616,-760
6407,5640,-2552
7943,7944,-3576
10247,11016,-5112
12039,11784,-5368
14087,12040,-5368
11527,7688,-3064
8455,3592,-760
3079,-1528,2823
264,-4600,5639
8,-5112,5383
8,-5368,5639
-248,-8185,6151
-1016,-9465,6663
-1272,-8441,6663
-760,-7417,5895
264,-7416,5383
264,-7928,5127
-248,-8185,5127
-760,-7929,5127
-504,-7929,4871
-504,-8441,5895
-2040,-14073,9735
-3320,-19705,12807
-4344,-20217,13319
-4600,-16377,9735
-1272,-3833,775
5384,14088,-14840
12807,-32248,29704
19463,-15608,11016
23815,-11768,5384
27399,-17144,-3320
22022,-25080,8200
12039,30984,26632
6151,20232,-23288
4359,9992,-12280
2823,2056,-5624
1543,-2296,-1273
263,-6392,2823
520,-8184,4103
776,-8440,4359
776,-8440,4871
264,-9208,6151
264,-9464,6407
776,-9208,5895
776,-8696,5895
776,-8952,5895
520,-8952,6407
776,-9464,6663
1032,-9464,6663
264,-9720,6407
-248,-9465,6663
8,-8184,6663
264,-8184,6663
264,-8184,6663
1800,-8184,5639
776,-8696,5383
776,-8696,5895
264,-8696,6151
8,-8696,6407
520,-8696,5895
776,-8696,5383
776,-8696,5127
776,-8952,5639
8,-9208,5383
264,-9208,5639
264,-9464,5639
264,-11000,5383
264,-11000,5383
264,-10744,5383
520,-10744,5127
264,-11256,4871
264,-12024,4871
-760,-13817,4615
-1016,-14329,4615
-760,-15097,4871
-760,-16377,5383
-1016,-17913,5639
-1784,-18937,5639
-2552,-20217,5639
-1272,-20217,5639
-3320,-22521,6663
-3064,-23033,7175
-4344,-24057,7431
-5624,-25849,8967
-6136,-27129,9991
-6136,-27385,9991
-6648,-26617,11015
-7416,-25593,12295
-7672,-25337,12807
-6904,-24057,12551
-6392,-22265,12295
-6392,-19961,12039
-6136,-18681,11783
-4856,-17913,11015
-4344,-16377,10247
-4344,-15097,10247
-4344,-13561,9735
-3320,-12281,8455
-2552,-11257,7687
-2552,-10233,7943
-2808,-9721,7943
-2552,-9465,7687
-1528,-8697,6919
-760,-8185,6919
-248,-7929,6919
-2296,-8953,7431
-760,-9209,7943
-248,-7417,8199
-248,-4857,9991
776,-2552,9735
3080,-1016,7431
3592,264,6920
3592,2824,3848
4360,5384,-1784
6151,6664,-4600
8199,7432,-5368
10247,9736,-5880
11783,11528,-6136
12295,11016,-6136
11015,6920,-4856
7687,2568,-1528
2567,-1784,2055
-248,-4345,3847
-248,-5625,3847
-504,-7929,4615
-1528,-8697,5895
-1272,-8697,5895
-1272,-8953,5383
-760,-8697,4871
1032,-8696,4871
-504,-9465,5127
-504,-8441,4359
-504,-8441,4359
-760,-8697,4103
-760,-9977,5127
-2296,-14841,8711
-4088,-19449,12807
-5880,-20729,13319
-5624,-17657,8967
-1272,-4345,-1529
4871,13320,-17144
13575,32008,27400
22023,-17656,6664
27655,-13560,-6648
28678,-19192,-6648
22278,-27384,8456
11783,28168,28168
5895,18184,-23032
3079,7688,-12024
1287,-760,-4345
775,-5624,7
264,-8184,2823
264,-8952,3591
264,-9464,4103
1288,-9976,4615
-248,-11257,6407
-248,-10745,6407
8,-9208,6151
-248,-9209,6407
8,-11256,6663
520,-11256,6663
264,-10232,6663
264,-9976,6407
264,-9976,6407
264,-10488,6663
264,-10744,6919
8,-10744,7175
8,-10232,6919
264,-9976,6919
520,-9720,6663
776,-9720,6663
776,-9720,6663
520,-9464,6663
520,-9464,6407
264,-9976,6407
520,-9976,6663
520,-9976,5895
520,-9720,5383
776,-10232,5639
2312,-10232,5383
776,-11768,6407
1032,-11768,6407
776,-11768,6151
776,-12024,5383
776,-12536,5127
8,-13560,5127
8,-14584,4871
-248,-14585,5383
-248,-15097,5383
-760,-17401,5383
-1528,-19705,5383
-2296,-20217,5383
-2296,-20473,5895
-3064,-22009,6919
-3320,-23801,7431
-4856,-24569,7687
-5368,-24313,7943
-5368,-25337,9223
-6392,-27129,10247
-7672,-28409,11015
-7672,-28153,11527
-7928,-27897,12551
-7672,-27385,13319
-7416,-25593,13063
-6392,-23801,12551
-6904,-20473,12551
-5368,-19705,12039
-4856,-18169,11271
-4600,-16377,11015
-4088,-14841,10503
-3320,-13817,10247
-3064,-12793,9991
-3064,-11769,8967
-2808,-10745,8967
-2552,-10745,10247
-1784,-11001,9991
-1784,-9977,9735
-5112,-8185,8967
-7928,-5113,4359
-7416,1799,-4856
-2809,10247,-20216
8455,19208,25352
20231,30216,8200
27655,-27640,-1784
-32250,-24568,-8696
-25594,-18936,-18680
-20986,-8440,-30712
-20730,2568,27401
-24314,9224,28937
-24058,11016,30217
-27386,16904,-24567
-28154,15112,-17399
-30714,9736,-7159
30470,520,4105
24071,-10488,16904
17927,-20216,28680
14087,-31480,-26616
11527,23560,-17912
9223,15112,-10744
5895,6152,-3320
2311,-1784,3591
264,-8952,8711
-760,-14073,12295
-1272,-15353,13575
-1528,-16633,13831
-2296,-18937,15111
-2552,-19449,15623
-2552,-19193,16135
-2808,-19193,16135
-3320,-19449,16135
-3320,-19449,16135
-2808,-18425,16391
-3064,-18169,16391
-3064,-19193,17415
-2808,-19449,17671
-4856,-20473,19463
-4856,-21753,19975
-5112,-23545,22535
-5624,-24825,24327
-6392,-25593,24839
-6648,-26361,26119
-6648,-28409,27655
-6648,-30457,29703
-6904,-30969,30727
-8696,-32505,32519
-10488,29959,-30457
-10232,27655,-28153
-11000,27143,-26361
-12792,26375,-24825
-14072,25351,-23033
-14328,23559,-20985
-14840,21767,-19193
-16376,19719,-17401
-17656,16903,-15865
-17656,15623,-14329
-17656,15367,-13817
-17400,14855,-14329
-17656,13831,-14841
-17912,13831,-16377
-16632,14087,-17145
-15608,15879,-19961
-14328,17415,-22777
-14072,18951,-25337
-13304,20999,-27897
-10744,23559,-30713
-9976,25863,-32761
-9976,27143,30727
-8696,29703,28423
-6904,32519,26631
-7160,-30713,24583
-7160,-28921,23047
-6648,-27641,22023
-6136,-25337,20999
-4600,-22009,18439
-3832,-18937,16903
-4088,-16377,16391
-3832,-15353,15367
-3320,-15097,14855
-3320,-15609,14855
-3832,-14585,14343
-3832,-12281,12807
-2552,-9977,11271
-504,-8697,10759
-760,-8953,11015
-1016,-8697,10759
-2552,-9721,11527
-1784,-9721,11527
-1016,-9209,10503
-760,-7929,9735
-1016,-5881,9223
-248,-5625,9479
8,-7160,9479
-248,-6905,9479
8,-5112,9735
8,-4856,9735
264,-5624,9991
-1016,-6649,10759
-1528,-7161,11015
-760,-6393,10503
-1272,-5881,10247
-1016,-5881,9991
776,-5880,10247
1032,-5112,10247
264,-5112,9479
-248,-5881,9735
-760,-6649,10759
-248,-6393,11015
264,-5624,11015
8,-6136,10759
264,-6392,10503
-1272,-6137,10503
-1528,-5881,10759
-504,-5625,10759
1032,-5112,11015
1032,-5112,12551
-248,-5113,13575
-760,-4345,14599
-760,-2553,14855
1032,-760,15111
2312,-248,14599
3592,2056,9480
6664,7176,3080
7688,9224,2056
8712,9736,2568
10248,11272,520
10760,12808,-760
12039,10504,264
11528,4360,3336
6664,-1016,7431
2056,-4088,10247
-760,-5881,11527
-1528,-6137,11783
-1272,-7417,12551
-2552,-9721,13575
-2552,-9977,13831
-1784,-11257,14343
-1528,-11769,14599
-2808,-11769,14599
-2552,-11001,13575
-2040,-10745,13831
-2040,-11769,14087
-2040,-14329,15367
-4344,-17913,20231
-6648,-20217,23559
-5624,-21753,22791
-3064,-19193,16135
1544,-4088,2823
8712,15880,-14072
18439,-31480,31752
27655,-17912,13832
-32761,-16888,3080
-32505,-27896,4360
25607,24328,19976
14087,12552,-24568
7431,3336,-9976
4359,-4344,519
520,-11512,8967
-1528,-16889,14599
-2296,-19705,16391
-2552,-19449,16391
-2808,-17657,17671
-2808,-17913,18183
-3064,-19449,18695
-2808,-18937,18695
-3064,-16889,18695
-3064,-15353,18695
-2296,-16121,18439
-2040,-16377,18183
-2296,-15609,18183
-2296,-14073,17415
-2552,-14073,17159
-2040,-13817,16903
-1528,-13817,16135
-1528,-13561,15879
-1528,-13049,15879
-1528,-13049,15879
-1528,-13049,15367
-1784,-13049,15111
-1528,-12793,14599
-760,-12537,13831
-760,-12281,14087
-1016,-12281,13831
-1016,-12025,13319
-1272,-12025,12807
-1016,-12537,12551
-760,-12537,12807
-1016,-12537,12551
-760,-12025,11527
-760,-12025,11015
-1016,-12537,11271
-1272,-13561,11271
-248,-13561,10759
-248,-13561,9991
-504,-14585,10247
-504,-15353,10247
-760,-16633,9735
-1016,-17401,8711
264,-17144,6919
520,-17400,7175
8,-19704,7431
-760,-21497,7431
-1528,-22777,7687
-1784,-23801,8455
-1784,-24569,8199
-2040,-25081,7943
-3064,-26361,7943
-3832,-27385,8711
-4088,-27897,9735
-4088,-27897,10247
-5112,-28409,10247
-5624,-28153,11783
-5624,-27129,12551
-5624,-25849,13063
-5624,-24825,13319
-5624,-24569,13575
-5368,-23033,13575
-5112,-20217,13319
-4088,-18425,12807
-3576,-17657,12551
-3064,-16633,11783
-3320,-14841,11271
-3320,-13305,11271
-2552,-13305,11271
-1784,-12793,11015
-1784,-11513,10503
-1784,-11001,9991
-1528,-11001,10247
-1528,-11001,10759
-1528,-10233,11015
-1016,-8697,10759
-760,-7417,11015
520,-5624,11271
1800,-2808,11015
2312,-1016,9991
2568,-504,8711
4872,4360,1288
5128,5640,-1528
6663,6664,-2296
9991,9992,-4088
12295,12808,-4856
12295,12040,-4088
11783,8968,-2552
9479,4872,-504
5639,520,2056
1544,-2296,4615
-248,-4345,6407
-504,-5881,6663
-504,-7929,6663
-248,-8441,6919
-760,-7929,6919
-760,-7417,6919
-760,-7673,5895
-760,-6905,5639
-248,-6905,5895
-248,-7161,6151
-504,-7161,6151
-760,-7161,5383
-760,-11001,7687
-3064,-17657,12551
-5112,-19449,14343
-5112,-18169,12295
-2808,-9465,4871
2568,6920,-8440
9223,25608,-26616
16135,-20984,18952
22535,-11256,3080
27143,-14328,-3576
24070,-22520,4616
14087,-31480,22536
6919,23816,-27128
5127,12808,-15352
3591,3848,-6904
2055,-1784,-1785
1031,-5624,1799
1032,-7928,3591
776,-7928,4871
520,-8440,4871
520,-9208,5383
520,-9464,6151
776,-9720,6407
776,-9720,6407
776,-9720,6663
776,-10232,6919
1032,-10744,6919
-760,-11001,7175
8,-9976,7175
-248,-9721,7175
1288,-9720,6663
1288,-10232,6663
776,-10488,6919
520,-10488,6919
776,-10232,6919
1032,-9208,6151
1032,-8952,5895
776,-9720,6151
776,-9976,6151
776,-9976,5895
1288,-9976,5895
1288,-9976,5639
776,-10232,5895
520,-10488,5895
264,-10488,5639
264,-10744,5639
520,-11256,5639
776,-11768,5639
520,-12024,5383
520,-12024,4871
1032,-12792,4871
1032,-13816,4871
-504,-14073,4871
-504,-15097,4359
-760,-17401,4615
8,-18680,4359
8,-19192,3591
-1784,-20473,3847
-3320,-22265,4871
-3064,-24313,5639
-3320,-25337,5639
-3832,-25849,6407
-4856,-26873,6919
-5624,-27897,8967
-5880,-28409,9223
-6648,-28153,8967
-6904,-27641,9735
-7160,-26617,11527
-7160,-24825,12295
-6904,-23289,12551
-6648,-22521,12295
-6136,-20985,12295
-5624,-18937,12039
-4856,-16889,10759
-4344,-15609,9479
-3832,-14585,9223
-3576,-13305,9223
-4344,-13305,8967
-3064,-12281,7687
-3320,-11769,7431
-2552,-11257,7687
-1272,-10233,7687
-1272,-10489,7431
-2040,-10745,6919
-2296,-10489,6663
-1784,-9209,7431
-760,-8185,8199
-760,-6393,8711
-504,-5113,8711
520,-3576,8199
2312,-1784,7687
3848,264,5128
4104,3080,-760
4359,4360,-4344
6663,5896,-5624
9223,9480,-6136
11527,11528,-7416
12295,11272,-7928
11783,7944,-5880
9735,3592,-3064
4103,-504,-249
7,-4088,2567
-1528,-5881,4103
-248,-6905,4103
-1272,-8441,4615
-1272,-8697,4871
-1272,-8441,4615
-760,-8441,4359
-760,-8185,4359
-1016,-8697,4103
-1272,-8697,3847
-1272,-8953,4359
-760,-8953,4103
-504,-8953,4103
-1528,-12025,6919
-4088,-17913,10247
-5112,-22009,12807
-5368,-21497,12551
-4088,-12537,4871
776,4872,-8952
8199,22536,-27128
16647,-25848,17928
23303,-14584,520
27399,-14584,-8696
25350,-22520,-2040
15878,32264,17416
7431,22536,-30200
4103,20488,-26104
2055,3080,-8696
775,-4856,-2553
263,-7928,1287
520,-7928,2823
520,-7672,2823
264,-9976,3847
8,-12280,6151
8,-11256,6151
8,-9976,5383
8,-9976,5383
-248,-11513,6407
264,-11768,6663
264,-11256,6663
8,-10744,6663
264,-10488,6663
520,-10488,6663
520,-10232,6919
520,-10744,7175
264,-12024,6919
8,-12536,6663
776,-12024,6663
1032,-11000,6919
1032,-10232,6663
520,-10232,6407
-1016,-10489,6663
8,-11256,6663
8,-11512,6919
264,-11512,6407
776,-11256,5639
776,-11256,5639
264,-11768,5639
-248,-12025,5895
-504,-12281,5895
-248,-12281,5383
1032,-11768,5383
1032,-12280,5383
-248,-13817,5639
-504,-14585,5383
-504,-15609,5639
-248,-16121,5383
-248,-16633,4615
-1016,-18425,4359
-2296,-19449,4359
-2296,-20217,4871
-2296,-20985,5127
-3320,-22521,6151
-4088,-24313,6407
-4856,-25337,6919
-5368,-26361,8199
-7160,-27641,9479
-7160,-27897,9735
-7672,-28153,10759
-7672,-27641,11527
-7672,-26361,12551
-7672,-25849,12807
-7416,-25593,12807
-7416,-24569,12807
-7416,-21753,12807
-6904,-20473,13063
-5624,-19705,12039
-3576,-17657,10759
-3576,-15865,10503
-4600,-14841,10247
-3832,-14585,8711
-2552,-13817,8199
-2808,-12793,8455
-2808,-12793,8967
-2808,-12793,8711
-2808,-12537,8711
-1784,-11769,8455
-1016,-11001,8199
-1016,-10233,8455
-1272,-10233,8967
-1272,-9465,9735
-2552,-8953,11015
1288,-4856,10247
2056,-3320,9223
2824,-1272,5895
4616,1032,776
5896,2824,-2808
6663,3848,-3832
8455,5384,-5624
11783,7944,-6648
12551,7944,-6136
11271,4360,-4344
9479,520,-2296
5383,-3832,775
776,-7416,4103
-760,-8697,5639
-1528,-9721,5895
-1528,-12281,6663
-1528,-13049,6663
-1784,-12537,6663
-1784,-12025,5895
-1272,-11769,5383
-1016,-11769,5383
-1016,-11513,5639
-1272,-11513,5639
-1016,-12537,5383
-1528,-12793,5639
-2040,-16121,8199
-5624,-21753,12807
-6136,-24313,14855
-5112,-23545,12295
-3320,-14329,5127
1288,2056,-8440
9479,19720,-29432
20231,-27640,12808
27655,-16376,-4088
29702,-18424,-10232
26630,-26104,-2552
16902,30216,17416
8711,21768,-30200
4615,13064,-17400
2055,3336,-8952
1543,-3064,-3577
1543,-7160,263
-248,-9721,3335
-248,-9465,3335
776,-10744,3591
776,-12024,5639
520,-12024,6919
-248,-11769,7175
-248,-12793,6919
-1272,-14329,8455
264,-14840,8967
-248,-14585,8967
-248,-14841,8967
8,-14840,8967
8,-14584,9479
-248,-14841,9479
-504,-14841,8711
-248,-14841,8455
8,-13816,8711
-248,-13305,8711
8,-13048,8967
-248,-14073,9479
-248,-15609,9991
-248,-16377,10759
-504,-16377,11015
-1016,-16633,11015
-1016,-16633,10759
-1016,-16121,9735
-760,-15097,9479
-248,-13561,8711
8,-13304,8455
-248,-13049,7687
-760,-12281,6663
-1272,-12281,6407
-2808,-12537,7175
-1784,-13305,6663
-1528,-13561,6919
-1272,-12793,5895
-1016,-11513,4615
-1528,-12281,5127
-2808,-15353,6407
-3320,-19449,7431
-4600,-22521,8199
-5624,-22777,9735
-5368,-23801,10247
-5624,-25337,9991
-7160,-26361,10247
-7672,-26873,11783
-8184,-27129,13831
-8696,-27897,13831
-9464,-28665,14343
-9208,-27641,15111
-9208,-26361,15623
-9464,-25337,15879
-9208,-23545,16391
-7928,-20985,16135
-6904,-18425,16135
-6904,-17145,15879
-6648,-16633,14599
-7928,-16377,14599
-6648,-15353,14855
-6648,-15353,15367
-5112,-13817,15367
-4600,-12025,14599
-4600,-11513,14087
-4088,-11769,13831
-3064,-11001,14343
-3320,-11257,14087
-3832,-12793,14599
-4856,-13561,15623
-4600,-12281,15623
-3576,-9465,15879
-2040,-6649,16903
-504,-5113,16647
-504,-4857,16647
-248,-3577,16135
1032,-1016,11271
2568,776,5128
4616,3080,3336
6152,5896,3080
6664,7944,3080
8456,7944,3336
8456,3592,3336
7176,-1016,4359
5640,-1784,6407
-1016,-4857,11783
-3320,-7929,12807
-4088,-11001,14087
-4344,-14073,16391
-4600,-15097,16135
-4344,-14073,14855
-3576,-12281,13831
-3320,-11513,13575
-4088,-12281,15367
-4600,-14073,15879
-4344,-13817,14599
-4344,-13561,14855
-3832,-13561,14343
-3576,-14329,15367
-4600,-20473,19719
-8184,-24313,23559
-8952,-23289,23815
-6392,-19961,17415
-1784,-8185,5895
4616,8200,-9208
15111,27912,-30712
25095,-19704,15112
30471,-17912,5384
30983,-32248,8200
29959,29192,11784
15111,14856,-23800
6919,5896,-9208
2311,-6392,2055
-504,-13049,9735
-1528,-15353,13575
-2552,-17913,16135
-4088,-19961,17671
-3832,-19961,18695
-3832,-20217,19719
-3832,-19961,19719
-4088,-19705,19975
-4088,-19961,20231
-3320,-18681,19719
-3064,-18169,19463
-3064,-17401,19207
-3320,-17145,19207
-3064,-16633,18951
-3064,-15609,17927
-3064,-15353,17415
-2808,-15097,17415
-2808,-15353,17159
-3064,-15097,16391
-2552,-14329,16391
-1784,-13817,16135
-2552,-13817,16135
-2040,-13817,15111
-2296,-13817,14855
-1016,-13305,15111
-760,-13305,14855
-1272,-13305,14087
-1528,-13561,13575
-1528,-13305,13575
-1272,-12793,13575
-1016,-12793,13319
-1272,-12793,12295
-1272,-12793,12295
-1528,-13305,12551
-1272,-14329,12039
-1016,-14585,11527
-1016,-15353,11271
-1016,-16377,11015
-1272,-17401,10759
-760,-17913,9991
-248,-18937,9991
-504,-19961,9735
-760,-21241,9735
-1016,-22009,9735
-1528,-23033,9735
-2296,-24569,9735
-3320,-25081,10503
-3064,-26617,10503
-3576,-26617,11271
-4600,-27897,12039
-5112,-28153,12551
-5368,-27897,13575
-5624,-27385,14087
-6136,-25593,14343
-6136,-24313,14855
-6136,-23289,14855
-5624,-21497,14855
-4600,-19193,15111
-3832,-17401,14343
-3832,-16377,13575
-3576,-15097,12807
-2808,-13305,12039
-1784,-11513,11271
-1528,-11257,10759
-1528,-11001,9991
-1272,-8953,9991
-1016,-8697,9991
-760,-8697,9479
-760,-8697,9479
-1784,-8697,9223
-2040,-7929,9735
-1528,-7417,10503
1032,-5624,10759
1032,-4088,10503
1288,-1784,9991
2568,264,8968
4360,2056,7176
4360,4104,2824
4616,6152,-1528
5639,7432,-3064
8455,8968,-3320
11271,11784,-4600
11527,12296,-4600
11527,10504,-3832
9735,6152,-1272
5895,776,2056
1544,-2552,4615
-504,-3833,5639
-504,-5113,5895
-760,-7161,6663
-1528,-8953,7431
-1528,-8185,7175
-1272,-7161,6407
-1016,-7417,6151
-1016,-8185,6407
-1016,-8441,6151
-1272,-8697,6151
-1272,-8185,5383
-1016,-8185,4871
-760,-9977,7175
-2808,-16121,10759
-5112,-20217,13831
-5368,-19961,13575
-3576,-13049,7175
8,2056,-4344
4871,19464,-20984
13575,-26872,24584
21767,-12024,6408
25863,-12024,-4088
25094,-20728,-1272
17926,-29688,15880
9991,26632,-32248
5383,16648,-19704
2567,6152,-9720
775,-1272,-2809
775,-4344,1031
520,-7160,3335
264,-8184,3847
8,-8952,5127
-504,-9977,6151
-504,-10233,6151
-760,-10233,6151
-760,-10489,6151
-248,-10233,6407
264,-10488,7431
520,-10744,7687
8,-10744,7175
8,-10232,6919
264,-10232,7175
8,-10232,7431
-248,-9465,6407
-248,-9465,6663
-504,-9465,6407
-248,-9465,6151
8,-9464,6407
8,-9720,6151
264,-9976,6151
264,-9720,5895
264,-9976,5639
520,-9976,5895
264,-10232,6151
520,-10232,5639
520,-10232,5127
264,-10232,5383
8,-9976,5639
264,-10744,5639
8,-10744,5639
8,-11768,5639
-248,-12025,5383
-760,-13305,5383
-760,-14329,5383
-504,-14329,5127
-1016,-15097,4871
-1016,-16633,5127
-1784,-18169,5383
-2040,-19193,5127
-2296,-19705,5127
-2808,-20985,6151
-2808,-23033,6663
-4088,-24313,6919
-5112,-24825,7175
-5112,-25849,7943
-5368,-27641,8711
-6136,-28409,9991
-7160,-28409,10503
-7416,-27897,11015
-7416,-27129,12295
-7416,-26105,12295
-7928,-24825,12295
-7672,-23545,12551
-6904,-21753,12551
-6136,-20985,12039
-5112,-18169,10759
-5112,-17145,10247
-4344,-15865,10503
-3320,-14329,9223
-3064,-13305,7943
-2808,-12537,7943
-2808,-11769,7687
-2552,-11769,7687
-2296,-11257,7687
-2296,-10489,6919
-2040,-9977,6663
-1528,-9977,6919
-1784,-9977,7687
-1784,-8697,8455
-1528,-6649,8455
-760,-4857,8711
1288,-3064,8967
3080,-760,8455
3080,1544,4360
4104,3336,-1016
5639,4616,-3576
7175,5640,-4344
8455,8456,-5880
10503,10248,-7160
12295,10504,-7416
11783,6408,-4600
8455,2568,-1528
3335,-2552,1031
8,-5880,3335
-760,-6905,4871
-1272,-6905,5383
-2296,-8697,5127
-2296,-10233,5383
-1272,-10233,5127
-1528,-9465,5127
-1528,-9721,5383
-1272,-9977,4871
-1272,-9977,4103
-1528,-9977,4359
-1016,-9721,4615
-1016,-9721,4871
-2808,-14329,7687
-3832,-19961,11015
-5368,-21753,12807
-6136,-20217,11527
-4088,-11769,4103
776,3848,-9976
8455,22024,-29688
17159,-24824,15112
20743,-19448,8456
27655,-18168,-7928
25094,-25080,8
14599,32264,19464
6151,21768,-28920
3335,9992,-16632
1799,520,-8440
263,-4856,-2553
-1273,-9209,2311
-1272,-12025,3335
-248,-11513,3335
-248,-10489,4359
-760,-10745,5639
-1272,-11513,5639
-1016,-12537,5383
-248,-12793,5895
-504,-12537,5895
-504,-12537,6151
-504,-12793,6407
-504,-12793,6663
-248,-12025,6919
-248,-11769,7175
-760,-11769,6407
-760,-11769,5895
-760,-12281,6407
520,-12536,7175
264,-12280,7175
8,-12280,6663
-504,-11513,6151
-248,-11257,6151
-504,-12025,6151
-760,-12025,6407
-504,-12025,6407
-760,-12025,6151
-504,-11769,5383
-248,-12281,5127
8,-13048,5639
8,-13048,5639
-248,-12793,5639
-1272,-13305,5639
-1016,-13305,5127
-504,-13561,4871
-760,-14585,5127
-760,-15353,5127
-1272,-16377,4871
-1528,-17913,4871
-1784,-18681,4871
-2040,-19705,5127
-3064,-21241,5127
-3832,-22265,5639
-3064,-22265,5639
-4088,-24057,6151
-4088,-25081,6919
-5624,-26361,7943
-6648,-27129,8711
-6648,-27897,9223
-6648,-28665,9735
-7416,-28665,11015
-8952,-28665,11783
-8952,-28153,12039
-7928,-26617,12551
-7672,-25081,12295
-7672,-23801,12807
-7416,-22265,13063
-6904,-20985,12039
-6392,-19705,11271
-6392,-18937,11015
-4856,-17657,10759
-3832,-15865,10503
-3576,-13817,8967
-3320,-13305,8711
-3320,-13305,8711
-3064,-13305,8711
-2552,-13305,8711
-2808,-13305,8199
-1784,-12281,7431
-2040,-12025,8199
-2040,-11513,8967
-1528,-10233,9223
-1016,-8953,10759
-760,-6905,10503
1288,-4600,9991
2312,-3320,9223
2568,-504,3847
4872,2056,-2552
6407,2824,-3832
7943,4616,-4344
10247,7688,-6136
11783,7688,-6136
11527,5640,-5112
10247,1032,-2552
5895,-4088,263
776,-6648,3335
-760,-8697,5127
-1016,-9721,5895
-1528,-11513,6407
-2552,-13049,6663
-2808,-13305,6663
-2040,-12537,6407
-1528,-12281,6151
-248,-11769,5127
-1528,-12025,5383
-1272,-12025,5383
-1016,-12281,5639
-1272,-12537,5639
-2040,-14329,6663
-4344,-19961,10503
-6136,-24569,14599
-6136,-24569,14855
-5368,-19193,8711
-1528,-5113,-3833
6151,13064,-21496
16135,-31992,21768
24327,-16632,1032
28935,-14840,-11768
29190,-21240,-8696
21510,-29944,9480
10503,26120,28680
5127,16136,-23544
3079,5640,-12792
1543,-1784,-3833
775,-5880,263
-760,-9209,2055
-760,-10233,3079
-248,-10489,4359
1288,-10744,4871
-504,-12793,5895
-760,-12537,5639
-1016,-11513,6151
-1016,-11769,7943
-1016,-13305,7687
-1528,-13817,7687
-2296,-13817,7687
-2040,-13817,8711
-1016,-13817,9223
-1016,-14585,8967
-1528,-14329,8455
-1528,-13049,8199
-1528,-13305,8967
-1272,-14073,9991
-1784,-14585,10503
-2552,-15609,10503
-2296,-15353,10759
-2296,-15353,10759
-2552,-15353,10247
-2552,-15097,9991
-2808,-14329,9735
-3064,-13561,9479
-2808,-13305,8967
-2552,-13049,8455
-1272,-13049,7687
-3576,-12793,7687
-2296,-9977,6663
-2040,-8953,6407
-2552,-10233,6663
-2552,-10745,5895
-3320,-12025,6151
-3832,-14073,7431
-4088,-15097,7943
-3832,-16377,7687
-3320,-17401,7943
-3576,-18169,8199
-6136,-20473,8711
-6904,-21753,8967
-7160,-22521,9479
-8184,-23545,9479
-7928,-24825,10503
-8440,-25593,12039
-8696,-26361,12551
-8696,-27129,13319
-9208,-28665,14599
-9976,-28665,15623
-11768,-27641,16391
-12280,-26617,17159
-11000,-23801,17159
-8184,-22521,17159
-8184,-20729,16647
-8184,-19705,14855
-7928,-17657,14343
-7672,-16889,15623
-7928,-17145,16391
-6904,-15865,16647
-5624,-13561,15623
-5624,-11769,14087
-4856,-11257,13831
-4344,-12025,14599
-5112,-13049,14855
-5112,-13305,14855
-5112,-13561,14855
-5880,-13817,15111
-4344,-12537,15879
-2552,-11513,16391
-2040,-8697,17159
-2296,-5369,17159
-1272,-5113,16391
-504,-3577,14599
776,776,10248
2568,2312,5640
3080,2568,4104
3592,3080,4360
6152,3848,4104
8456,5384,3336
9224,5128,2824
8200,1032,3848
3336,-4600,8711
-1272,-9209,13063
-3832,-11001,14599
-4600,-11769,14343
-4856,-13305,14343
-4856,-14841,15111
-4600,-14841,15367
-4600,-13817,15623
-4600,-13817,14599
-3832,-13561,14087
-3064,-14073,14343
-3832,-14841,14599
-3832,-15097,14343
-3064,-13561,14599
-3832,-13817,15623
-6648,-21497,19719
-7672,-27385,23815
-8696,-27641,23559
-7416,-20985,16903
-760,-6649,5639
6152,9480,-9976
9991,15112,-15352
24583,-24056,16648
29447,-22008,4360
31495,-32760,6408
25863,20488,23304
13831,12040,-22520
6663,4104,-9464
3079,-6648,2055
-248,-14073,9991
-2040,-17401,14087
-3064,-19449,15879
-3064,-19961,16391
-3320,-20217,17671
-3576,-20729,19207
-3832,-20729,19463
-3576,-20729,18951
-3576,-20729,18951
-3320,-19449,18695
-3320,-18425,18951
-3064,-18425,18951
-2552,-18169,18439
-2552,-16889,17671
-2808,-16121,17159
-2808,-16121,17415
-2040,-16121,17159
-504,-16377,16391
-1272,-15609,16135
-1272,-14585,15879
-1016,-14841,15623
-1528,-15097,15367
-1528,-14841,15111
-1272,-14329,15111
-1272,-14073,14599
-1528,-14585,14343
-1528,-14841,13831
-1528,-15097,13319
-1528,-14841,13063
-504,-14841,13063
-760,-14585,13319
-1272,-15097,12295
-1784,-15865,11783
-1784,-16377,11527
-1016,-16377,11527
-248,-16633,11271
8,-17912,11271
-1016,-19193,10759
-1528,-19705,10247
-1784,-20473,9735
-1016,-21497,9991
-760,-23545,9991
-248,-23545,9479
-2296,-24825,9223
-2040,-25849,9479
-2296,-27897,10247
-3576,-29177,10759
-4088,-29177,10759
-4088,-29689,11271
-4088,-31481,12295
-5368,-31481,13063
-6136,-30457,13063
-5880,-29433,13575
-5624,-28153,14343
-5624,-27129,15111
-5624,-25337,15111
-5368,-23545,14855
-5368,-22009,14343
-5112,-20217,13831
-4344,-18425,13319
-3320,-17145,12039
-2808,-15865,12039
-2552,-15097,11783
-2296,-14329,10759
-2296,-13305,10503
-2296,-12793,10247
-2296,-13049,9735
-760,-12793,9479
-1272,-12281,9479
-1272,-12025,9479
-1016,-12025,10247
-1016,-10489,10759
-760,-8185,10759
776,-5112,10503
2056,-3320,9223
2568,-2040,8711
2824,520,5896
4360,3080,8
5896,3848,-2808
6919,4104,-2808
8199,6920,-3320
10759,9736,-4344
11015,7688,-4344
10503,4104,-2808
7943,520,264
4104,-3064,3335
776,-5624,5383
-1016,-8185,6407
-1528,-9721,6919
-1528,-10233,7175
-1784,-10233,7175
-2040,-10233,7175
-1528,-10489,6663
-1528,-10233,6407
-1016,-9977,6407
-1272,-10233,6151
-1272,-10489,6151
-1528,-10489,6151
-1528,-10489,6151
-2808,-14585,8967
-4600,-20729,12295
-5112,-22521,14087
-5112,-19961,12039
-3064,-10489,3591
2312,6152,-10488
8967,25096,-29176
16135,-21496,16648
22279,-12536,1544
26375,-16888,-5624
23814,-25592,3848
14343,30984,23048
6407,20744,-26872
3847,9992,-15352
2311,8,-6904
519,-5368,-1273
-505,-8953,2567
-1016,-10745,3847
520,-10744,3591
264,-11256,4615
-248,-12025,5639
-760,-12025,6151
-504,-12025,6151
-248,-12025,6407
-248,-12281,6407
-504,-13305,6663
-504,-13305,6919
8,-12536,6663
8,-11768,6919
8,-11768,6919
8,-12536,7175
8,-12536,6407
8,-12536,6407
8,-12024,6407
-248,-12025,6151
-248,-12281,6151
-248,-12025,6151
8,-12024,5895
264,-12280,6151
8,-12280,6407
264,-12280,5895
264,-12024,5639
264,-12280,5383
1032,-12280,5383
776,-12536,5639
520,-13048,5639
264,-13816,5639
264,-14072,5639
8,-14328,5639
-248,-14329,5383
-248,-15097,5127
-248,-15865,5127
-504,-16377,5127
-760,-17913,5127
-1528,-19449,5127
-1784,-20729,4871
-1784,-22009,4871
-2296,-23033,5127
-3320,-24057,5895
-3832,-25849,7175
-4088,-26617,7431
-4600,-27641,7431
-4856,-28665,7943
-5880,-29177,9223
-6648,-29689,9735
-6648,-29433,9991
-7160,-29433,11015
-7672,-29433,12295
-7416,-28921,12295
-7160,-25337,12039
-6136,-23801,11527
-6392,-23033,11527
-6136,-21497,11015
-5112,-19193,9991
-4600,-18169,9479
-4344,-17657,9479
-3320,-16377,9223
-2808,-14585,8711
-2552,-13305,7431
-2040,-13305,7175
-2296,-13049,6919
-2296,-12537,7175
-2296,-12537,7431
-2296,-12281,7431
-2552,-12025,7175
-1784,-10489,6919
-504,-9465,7431
520,-8440,8455
776,-6136,8711
1288,-4088,7687
2312,-2296,5639
4104,-248,1543
4872,1544,-2808
5127,1800,-4088
7687,5128,-6136
10503,7688,-6904
11271,7688,-6904
11015,6664,-5880
10503,3336,-4600
6663,-2040,-1273
1543,-6392,2055
-1016,-7417,3335
-1272,-8185,3847
-1016,-10745,4615
-1528,-12537,5127
-1528,-12537,5127
-1528,-12281,4871
-1784,-12281,4615
-1528,-12537,4615
-1528,-12281,4615
-1272,-11769,4359
-1016,-11769,4615
-1016,-12025,4103
-1272,-13561,5127
-3064,-19193,9223
-5112,-23289,13319
-5624,-24057,13063
-4600,-18681,6919
-3576,-15865,3847
5896,13320,-20728
14343,32264,23816
22279,-18936,4360
27143,-17400,-7416
27142,-24056,-6392
19206,-31736,10760
9735,23816,29704
5127,14344,-22520
2823,4872,-11512
263,-3832,-3833
7,-8696,263
264,-11256,1799
-248,-11769,2567
-504,-11769,3847
-760,-12537,5127
-1016,-13305,5127
-760,-13305,5127
-248,-13305,5383
-248,-13305,5639
-504,-13817,6407
-760,-14073,6151
-760,-13561,6151
-760,-13305,6151
-248,-13305,5895
-248,-14585,6151
-248,-14329,6663
-504,-12793,6663
8,-12280,6151
8,-12280,6151
264,-12536,5639
-248,-12281,5383
-248,-12537,5127
-248,-12537,4871
8,-12536,5383
264,-12280,5127
8,-13560,5127
-248,-13817,5383
-248,-14073,5127
8,-14072,5383
-248,-14073,5383
-248,-14073,5127
8,-14584,4615
264,-15352,4871
8,-16120,4615
-504,-16121,4359
-1272,-16377,5127
-1528,-16889,4871
-1016,-18425,4871
-1016,-19449,4871
-1528,-19705,4615
-2040,-21497,4615
-2552,-23545,4871
-2552,-25081,5639
-3064,-25593,6919
-4600,-26361,6663
-5368,-28409,6919
-5368,-29945,8967
-5112,-29689,9223
-6392,-29689,9223
-7160,-29433,9479
-7416,-29177,10503
-7416,-28665,12039
-7416,-27897,12295
-7416,-26617,12039
-7416,-26105,12295
-6904,-24825,12551
-5624,-22265,12295
-4856,-20217,10759
-4856,-19961,10503
-4088,-19449,10247
-3064,-17401,9735
-3064,-15865,9223
-3064,-15865,8967
-3320,-16121,8455
-3576,-15865,8455
-1528,-13049,7431
-1528,-12793,6919
-2040,-13049,6919
-2552,-13049,7431
-2296,-12281,8711
-1528,-10745,8711
-504,-8441,8967
8,-6904,9223
1544,-5880,9479
2312,-4088,8967
3080,-1272,4103
4360,520,-2040
5639,520,-3576
7431,2056,-4344
9991,5896,-6136
11527,7432,-6648
12295,5896,-6136
12039,2824,-3832
7175,-2040,-1017
2055,-6392,1543
-1016,-8697,4103
-1272,-10745,5127
-1016,-11513,4871
-1784,-12793,4871
-2296,-13561,5127
-1784,-13817,5895
-1784,-13817,5895
-1528,-13817,5127
-1016,-13305,4359
-760,-12793,4103
-760,-12793,4615
-760,-12793,4359
-760,-13561,4871
-2808,-18681,8711
-5624,-24313,13319
-6136,-24569,14087
-5368,-20217,8711
-1784,-8441,-1529
4615,8712,-18168
14599,28680,24328
24071,-19448,2568
29191,-16376,-10744
30470,-22008,-11000
23814,-30200,5384
12807,26376,25096
6663,16392,-25592
3591,5896,-13304
1799,-1784,-5625
1799,-5368,-2041
7,-7416,-1017
-249,-9977,2055
8,-10232,3335
264,-11256,3847
8,-12280,4615
-248,-12537,5383
8,-12280,5639
-504,-12281,6151
-760,-12281,6151
-248,-12281,6151
8,-12280,6151
-248,-12281,6663
-248,-12025,7175
-248,-13561,7431
8,-15608,7943
8,-15608,8199
8,-13560,8199
264,-12792,7687
264,-13304,7175
264,-13304,6919
-504,-13049,6919
-504,-12793,7431
-504,-13049,8455
-504,-13817,8199
-248,-13817,7943
-760,-13817,8455
-760,-13817,8199
-1528,-14585,8199
-1016,-14585,7687
-504,-13049,6663
-504,-11769,6663
-760,-12025,6919
-1528,-13305,6919
-1528,-15097,6919
-1528,-15097,6919
-1272,-13817,5639
-1016,-13561,4871
-1272,-14073,5127
-2808,-15353,5383
-3320,-17401,6407
-3832,-18937,7687
-4344,-20217,7943
-4600,-21497,8711
-5624,-24057,8967
-6648,-24825,9735
-6648,-24825,10759
-7160,-25849,11015
-8184,-26617,13319
-8696,-27641,15367
-8952,-28665,15111
-10232,-29177,15623
-8952,-26361,16135
-9208,-25593,16135
-8952,-21753,16135
-7928,-19961,15367
-7928,-19961,15111
-7928,-19705,15879
-6904,-18425,16135
-5112,-15097,15111
-4600,-14585,13575
-4600,-14073,12807
-5112,-11257,12807
-4344,-10489,12551
-3832,-11257,13319
-3576,-10745,13063
-3320,-9977,13063
-3576,-10233,13319
-4088,-9977,13831
-3832,-9977,14343
-2296,-10233,15111
-2040,-7161,15367
-1016,-3065,14855
520,-2552,14855
1288,-2040,14599
2312,1800,9736
1544,3336,8200
4104,3848,2824
5640,3848,2056
8200,5640,2056
8456,6664,1288
9224,5896,1288
8456,776,3848
4104,-4088,7175
520,-6392,9991
-3064,-9209,11271
-4088,-12025,12039
-3064,-12281,13319
-3320,-12281,13575
-3064,-12281,13319
-3320,-12025,14087
-4088,-12281,13831
-3320,-12025,13831
-2552,-12537,14087
-2808,-14585,14087
-3832,-15865,14087
-3832,-14073,13831
-3576,-13561,13831
-4344,-19193,18183
-5880,-24825,22535
-6904,-26361,22535
-8696,-26105,21255
-760,-7673,5639
4872,8200,-8696
14343,25608,-29176
25351,-21496,15368
30983,-17400,2568
32263,-29176,3080
28423,23304,18952
16903,14088,-26360
7687,4872,-11000
3079,-5880,519
8,-13816,8967
-760,-16889,13063
-2040,-18681,14599
-3320,-18937,15367
-3320,-18937,16903
-2296,-19449,17927
-2296,-19705,17671
-2040,-19705,17415
-2296,-18681,17671
-2040,-17401,17415
-2296,-16633,17159
-2040,-16889,17159
-2296,-16377,16903
-2040,-15353,16391
-3064,-15353,16135
-1016,-14841,15879
-1528,-14585,15879
-1528,-14329,15111
-1528,-14073,14087
-1272,-14073,13831
-1528,-14073,14343
-1016,-13305,14087
-760,-13049,13319
-1016,-13049,13063
-1016,-13305,13063
-1272,-13305,13063
-1016,-13305,12295
-1016,-13049,11783
-1272,-13049,11783
-1528,-12793,11527
-1016,-12793,11527
-504,-13049,11271
-248,-13305,10503
-248,-13561,9991
-504,-14329,9991
-504,-15097,9735
-1016,-15865,9479
-1016,-16633,9479
-248,-17145,9223
-1272,-18169,9223
8,-19960,8455
-760,-20729,8455
-1016,-21497,8711
-760,-23033,8455
-1016,-24313,8455
-2040,-25337,8711
-2552,-26105,8455
-2808,-26873,8967
-3320,-27897,9991
-4088,-28153,10759
-4856,-28153,11527
-4856,-28153,12039
-5112,-27385,13063
-5624,-26105,13575
-5624,-24569,13831
-5368,-23033,13831
-4344,-22009,13319
-4344,-19961,13063
-4088,-17657,12551
-3576,-16121,12039
-2552,-15865,11271
-2040,-14073,10759
-2296,-12025,10503
-1784,-11257,9735
-2296,-11513,9735
-504,-10489,8967
-1272,-10233,8711
-1016,-9465,8711
-248,-9209,8455
-248,-9465,8455
-248,-8697,8967
8,-6904,8967
1288,-4344,8967
2312,-2808,8967
2824,-504,8199
3336,1544,7432
4616,3848,3848
5640,5128,-1528
6407,6152,-4344
7431,8200,-4600
10247,11272,-5880
12807,12296,-6392
13319,10760,-6136
11271,7944,-3832
8967,3592,-1528
4615,-760,1543
1288,-3832,4103
-248,-4857,5127
-248,-5625,5383
-1272,-6905,6151
8,-7672,5639
-504,-7417,5639
-504,-7417,5383
-504,-7673,5127
-504,-7929,5127
-760,-7673,5127
-248,-6905,5127
8,-7160,4359
-248,-7929,4103
-1784,-13049,8199
-3576,-18169,12039
-3832,-19449,12551
-3832,-17145,9479
-2808,-6905,1543
3080,11272,-13048
11015,30728,32520
19207,-17144,12296
24327,-9464,-1784
26630,-14840,-5368
23814,-23288,4616
14855,-32504,22792
7175,21768,-26872
3847,11272,-14328
3079,2824,-6904
1031,-248,-4089
1031,-6392,1543
8,-8440,3079
8,-8184,3079
520,-8184,3847
264,-9464,4871
-248,-10489,5895
-248,-9977,6151
776,-9464,5639
520,-9208,5383
520,-9464,5383
264,-9464,6151
520,-9464,5895
520,-9720,5895
264,-9976,6151
8,-10232,5895
520,-10232,5639
520,-9464,5895
776,-8696,5895
1032,-8952,5639
776,-8952,5639
520,-9208,5383
520,-8952,5383
520,-9208,5383
520,-9720,5127
-1272,-9977,5639
8,-10232,4871
264,-9976,4871
264,-10232,4871
520,-10232,4359
520,-10232,4359
520,-10488,4359
520,-11000,4359
264,-11768,4359
8,-12280,4359
264,-13304,4359
264,-13816,4615
-248,-14841,4359
-760,-15609,4359
-1528,-16889,4359
-1784,-17913,4359
-1784,-19449,4871
-1784,-20729,5127
-2296,-22009,5639
-3064,-23545,6407
-4088,-24569,6663
-4856,-25337,6663
-5112,-26105,7943
-5368,-26361,8455
-5624,-26873,9223
-7416,-27129,10247
-6904,-26361,11015
-6904,-26105,11271
-6648,-24057,11527
-6904,-22265,11527
-6648,-21497,11527
-5368,-19961,11271
-5112,-17913,11015
-4600,-16377,9223
-4088,-15353,8711
-3064,-14329,8967
-2808,-12537,8711
-2808,-11257,7431
-2808,-11001,6919
-2552,-10745,6919
-1784,-9977,6919
-2040,-9465,6663
-1784,-9209,6663
-760,-9209,6663
-1016,-8697,6663
-248,-7161,6663
8,-6136,7175
-248,-4857,8967
1032,-2808,9223
3080,-504,6919
2056,8,6408
4616,3080,520
5640,4360,-3576
6919,5896,-5112
9223,8456,-6648
10759,10504,-7160
11271,10504,-6392
11527,9224,-6136
10503,5128,-4344
5895,-248,-761
1031,-4088,2567
-760,-5881,4103
-760,-6649,4103
-1016,-8441,4615
-1272,-9465,5127
-1272,-9465,5383
-1272,-9209,4359
-760,-8953,3591
-504,-8953,3591
-504,-8953,4359
-504,-8953,4359
-504,-8697,4615
-248,-8953,4103
-504,-10745,5383
-3064,-16633,9223
-5880,-18937,11783
-5112,-19705,11783
-3064,-13049,5639
1544,1288,-6392
7431,18440,-24312
15623,-27384,18952
24327,-13560,520
29703,-13560,-9464
27910,-21496,-3320
17926,-30200,14344
8455,25352,32264
5895,15112,-20216
3591,4360,-9976
775,-2552,-4089
775,-5624,-505
775,-7672,2055
1032,-8952,2567
1032,-8696,3079
776,-9464,4615
520,-10744,5127
264,-10744,5127
264,-10232,5383
264,-10232,5383
264,-10488,5383
520,-11512,6151
8,-11512,6919
8,-11256,5895
8,-11000,5639
776,-10488,5639
1032,-10744,5639
776,-10488,6151
264,-10488,6151
520,-10488,5895
1544,-10488,5639
1544,-9976,5383
1288,-9976,5639
776,-10232,5383
520,-10744,5127
520,-11000,5383
520,-10488,5639
776,-9976,5639
1032,-9720,5127
1544,-10488,4615
1288,-10744,4359
520,-10744,4871
264,-11512,4615
264,-12280,4359
8,-13048,4871
520,-13560,4871
520,-14072,4615
-504,-14073,4615
-248,-15353,3847
-504,-16121,3591
-760,-17401,4103
-1272,-18681,4103
-1784,-20217,4359
-2040,-21497,4871
-2296,-22521,5383
-3320,-23801,5639
-3832,-24313,6151
-4856,-24569,7175
-5880,-25593,7687
-6392,-26361,8711
-6136,-26617,9223
-6904,-26361,9991
-6648,-25337,11015
-6648,-24569,11271
-6136,-24313,11015
-5880,-23289,11527
-5368,-20729,11271
-5112,-18937,10503
-4856,-18169,9991
-4088,-16633,8967
-3576,-14585,8711
-2808,-13561,8711
-3064,-13817,8199
-2552,-12537,6663
-2040,-11513,6663
-1272,-11513,6663
-1528,-11513,6407
-1528,-11513,6407
-1272,-10489,6663
-1016,-9465,6919
-504,-8953,6919
8,-7928,7687
8,-6136,8455
1544,-4088,8455
2824,-2296,7943
3080,-1528,5639
4360,1544,776
6408,4616,-4344
7943,5640,-6136
9479,6664,-6392
11783,8712,-7416
12807,9480,-7416
13063,7688,-6648
10503,3336,-4344
5895,-1272,-761
1799,-4600,2823
1032,-6648,3335
520,-7416,3335
-760,-10233,4871
-1272,-10489,5127
-1272,-9977,4615
-760,-10489,4615
-248,-10233,4103
8,-9976,3847
264,-9464,3591
776,-7928,3591
520,-7928,3591
264,-9720,3847
-760,-13049,4871
-3064,-18425,9223
-4600,-21241,13063
-4856,-21497,12807
-3064,-15097,4615
1288,264,-7416
9223,19208,-25848
19463,-27640,16648
27143,-15864,-2552
30982,-16120,-12536
29958,-23288,-6648
20230,32264,13320
10247,22024,32008
6151,12296,-21240
5639,10504,-17144
2055,-3320,-3321
775,-7416,7
264,-10232,1287
264,-10232,2567
264,-10488,4103
264,-12280,4615
8,-12792,4871
520,-12024,4871
1544,-11000,4871
1288,-11000,5383
776,-12024,5383
776,-12024,5639
776,-11256,5383
1032,-10488,5383
1032,-10744,5639
776,-11000,6151
520,-10744,6151
776,-11000,5639
776,-11256,5383
776,-10744,5383
520,-10488,5639
520,-10488,5895
520,-10488,5639
1032,-10232,5639
1032,-10744,5383
776,-11512,5383
520,-10744,5383
776,-10488,5383
1032,-10744,5383
1032,-10488,4615
520,-10232,4103
520,-10744,3847
264,-11768,4103
776,-12536,4359
776,-12536,4871
-248,-13049,5127
-504,-14585,4615
-1016,-15609,4615
-1784,-16377,4615
-1272,-16889,4359
-1528,-17913,4615
-2552,-20217,4359
-3064,-21753,4615
-4344,-22009,5895
-5112,-22521,6151
-4856,-24057,6407
-5112,-25081,6919
-6392,-26105,7687
-6904,-26873,8967
-6904,-26873,9223
-7672,-28409,9991
-7672,-27897,10759
-8440,-26617,11527
-8952,-25593,12039
-7928,-23545,12295
-6648,-22265,12295
-6392,-21497,11783
-6392,-19705,10503
-5624,-18425,9991
-4856,-17145,9991
-4088,-16121,9735
-4088,-14841,9735
-4088,-13305,8455
-3064,-12793,7687
-2296,-12281,7687
-2552,-11257,7943
-2552,-11001,7687
-2296,-11257,7175
-2296,-11257,7687
-2296,-11257,7943
-1272,-10233,8455
-760,-8441,8967
-504,-6649,9479
776,-5368,9479
1800,-4344,9991
3080,-504,7175
4104,2312,1032
5384,3336,-3576
6663,3848,-4856
8967,7176,-5368
11783,9992,-7160
12295,9736,-7928
12295,7688,-7160
10247,5384,-5112
5383,1288,-1784
1287,-2552,1031
-248,-4601,1799
-248,-4601,2823
-1016,-5625,3335
-1528,-7673,3335
-1272,-8441,3335
-1272,-8441,3847
-1016,-8185,4359
-1016,-9209,4871
-1528,-9721,4871
-1528,-8953,4871
-1272,-8697,4615
-760,-8697,4103
-1016,-12281,6407
-1784,-14329,7687
-6392,-22265,13319
-6392,-21241,11783
-4088,-13049,4615
8,1800,-7416
7943,19720,-26616
19207,-27640,15880
28423,-16632,-2552
31238,-20472,-9464
29190,-29176,-2552
19206,26888,17416
9991,18184,-29688
5127,8456,-16376
1287,-1016,-6649
-249,-6393,-761
7,-8952,1799
264,-10232,3847
-504,-9721,4103
-760,-9209,4615
-760,-9465,5895
-1016,-9465,6151
-1016,-9977,5895
-248,-10233,6151
-248,-9209,6663
-248,-7929,6663
776,-7416,6151
520,-8184,6151
264,-7928,6919
-1272,-7417,7431
-1016,-7161,7687
-504,-8441,7687
8,-10744,7687
776,-9720,7687
776,-7928,7175
264,-6392,6919
-248,-6393,6919
-1016,-8441,7175
-1016,-8441,7175
-760,-7673,7175
-760,-9465,7431
-504,-9465,8967
-504,-8953,8711
8,-8696,7943
776,-8696,7431
-248,-9977,7687
-2296,-11513,8711
-2296,-12025,9479
-504,-12793,9479
520,-12536,9479
-1272,-12537,9223
-1272,-12537,8967
-1528,-13817,8967
-2296,-15097,9223
-2552,-16633,9991
-3832,-19449,9991
-4600,-21241,10247
-4088,-20729,11271
-4600,-20985,11783
-5368,-23545,12295
-6392,-24825,13063
-6904,-26361,14343
-6904,-27129,14855
-7672,-27641,15111
-9464,-27897,15623
-9720,-27641,16647
-9464,-26873,17927
-9208,-25849,18439
-8952,-24569,18439
-9720,-24569,19207
-9208,-22009,19207
-7416,-17913,18183
-7416,-17657,17927
-7160,-18169,17927
-6136,-17145,17159
-6392,-16377,16903
-5368,-14841,16391
-5368,-12793,15879
-4088,-12537,15623
-4088,-12537,15623
-4088,-12025,15879
-4088,-10745,15111
-3576,-9977,15111
-3576,-11769,16391
-3320,-12281,16135
-3576,-9977,16647
-3832,-8185,17927
-2552,-6393,17671
-504,-5369,16647
1032,-2552,16135
1544,520,13320
2824,1800,7944
5896,3592,3336
6664,5896,2568
6408,6664,2568
7688,6408,3592
8200,4616,4616
8456,1544,5640
6152,-2040,7431
2056,-4600,10759
-1272,-7161,13319
-504,-7673,13319
-3064,-12537,15111
-3832,-15353,16135
-4600,-15353,15879
-4344,-13561,15879
-3320,-13305,15623
-2296,-13049,15879
-3064,-14073,16903
-3832,-15353,16903
-4088,-15865,16135
-2808,-15865,15623
-1784,-15609,15367
-5112,-20473,19463
-7928,-26105,24071
-8184,-27129,24071
-5880,-24825,19463
-2296,-15353,10503
3080,3080,-3576
11783,22024,-24312
23047,-25848,19720
30727,-19448,6920
-32505,-28408,4872
29447,24072,15624
19463,15880,-31736
10759,9224,-15352
9735,7688,-11256
1287,-6904,4615
-760,-10745,8455
-1016,-13305,12039
-2296,-13817,14087
-2296,-13305,13831
-1784,-13049,14087
-1528,-13049,14599
-1528,-13561,15879
-2040,-13561,15623
-2296,-13049,14599
-2296,-12793,14599
-2296,-12793,14343
-2040,-12281,14343
-1528,-12281,14343
-1528,-12025,13831
-1528,-11257,13575
-1272,-11257,13319
-1016,-11257,13319
-1272,-11257,12807
-1272,-11257,12295
-760,-10745,12295
-760,-10489,12039
8,-9976,11527
264,-9976,11271
1800,-10232,10503
8,-10488,10759
264,-10232,11015
8,-10232,10503
8,-10232,9991
8,-10232,9479
8,-10488,9735
520,-10744,9479
520,-11512,8967
520,-11512,8199
520,-12024,8199
264,-12280,8199
264,-13560,8199
264,-14328,7943
264,-14840,7431
520,-15864,6919
520,-16888,6919
-248,-18425,6663
-1016,-19705,6663
-1016,-21241,6663
-1784,-22521,6919
-2296,-23289,7687
-2296,-24569,7943
-2296,-25337,7687
-3320,-26361,8711
-2552,-26361,9223
-4600,-27129,10759
-4344,-26873,11015
-4856,-26617,11271
-5624,-26105,13063
-5624,-24569,13831
-5112,-22777,13575
-4856,-20985,12807
-5112,-20217,12807
-4344,-18681,12551
-3576,-16121,12039
-3576,-14841,11527
-3320,-14585,11015
-2808,-13561,11015
-2040,-11769,9735
-2040,-11001,8967
-1784,-10745,8711
-1784,-10233,8711
-1784,-9209,8455
-1528,-8441,7943
-1528,-8697,8199
-1272,-8697,8455
-1272,-7673,8967
-760,-5881,8967
776,-3320,8711
3080,-2040,8455
3080,8,8200
3336,2312,5640
3336,4616,-248
5127,5896,-3320
6919,6152,-3064
8967,8712,-5112
11015,11784,-6904
11527,11528,-5880
11527,8200,-3832
9479,3336,-1272
4103,-760,1031
264,-3832,3591
8,-5624,5383
-248,-6905,5639
-1272,-7929,5639
-1272,-8697,5895
-1272,-8697,5639
-1016,-8953,5383
-760,-8697,5639
-1272,-8697,5383
-1016,-8697,5383
-248,-8697,4871
-248,-8697,4871
-248,-8441,4871
1032,-8440,4103
-3320,-17145,10503
-4088,-20985,13063
-3832,-19961,12295
-3064,-11513,5383
776,4616,-7672
8199,22536,-26360
17159,-23800,19208
22791,-11512,2824
26119,-12024,-6392
25606,-21752,-504
17670,-31480,17928
7943,24584,-29944
4103,14856,-18424
3079,4616,-9976
2055,-3064,-2809
775,-6392,1799
-504,-7929,3079
-248,-8697,3079
776,-9464,4103
520,-11000,5383
-504,-11001,5895
-504,-11257,6151
520,-11256,6151
1032,-11512,6151
1800,-11256,5895
-760,-11257,6151
264,-11000,6151
264,-11000,6407
520,-11000,6407
264,-10744,6407
520,-10232,6407
520,-10232,6151
264,-10488,6151
264,-10232,6151
264,-10488,6407
264,-10488,6151
264,-10232,6407
264,-10488,6151
776,-11000,5383
776,-10744,5383
776,-11000,5383
776,-11256,5383
776,-11256,5895
520,-11256,5895
520,-11256,5383
8,-11256,4871
8,-11512,5127
8,-11768,4871
8,-12792,4871
1800,-13048,4871
264,-14584,5383
-248,-14841,4615
-760,-16121,4615
-760,-17145,5127
-1016,-17913,5383
-1528,-19449,5383
-1528,-21241,5639
-2296,-22009,5895
-3320,-23033,6151
-4088,-24569,6919
-4344,-25849,8199
-4856,-26873,8711
-5112,-27897,8711
-6136,-28153,9735
-6648,-28153,11271
-6648,-28153,12039
-6648,-27641,12039
-6392,-25593,12551
-6648,-24569,12551
-6904,-24057,12807
-6648,-22265,12039
-5112,-19705,11015
-4088,-17913,9991
-4088,-17145,9991
-2808,-16633,9735
-3064,-14585,9223
-2552,-13561,8199
-2552,-13305,8199
-2552,-13049,7943
-2296,-12025,7687
-1272,-11257,7687
-1016,-10745,6919
-1016,-10489,7175
-1272,-10233,7687
-1272,-9977,7943
-1016,-9721,8199
264,-7416,8967
1800,-4856,8967
2312,-3064,8711
2824,-1528,6151
4616,1032,1544
5640,3080,-3320
6407,4360,-4856
7687,5640,-5368
10247,8712,-6648
12551,9736,-6904
12295,7176,-5368
11015,2824,-4600
6663,-2040,-1017
6663,-2552,7
8,-7416,4359
-760,-8953,4615
-1784,-11001,5127
-1784,-11257,5383
-1272,-11257,5127
-1016,-11257,5383
-760,-11001,5127
-760,-11257,5127
-1016,-11257,4871
-760,-10233,4871
-1016,-10489,4871
-1016,-11769,4359
-760,-11769,5127
-2808,-16633,8711
-4600,-21497,12807
-4856,-22777,13319
-4344,-18169,7943
-1272,-4601,-2041
4103,12552,-18680
13063,31752,25608
21767,-17656,5384
26631,-14584,-6648
27398,-20728,-5624
20486,-29688,10248
18183,32264,16136
4359,14856,-22008
2311,4872,-11000
1031,-3064,-4089
1031,-7928,7
8,-10488,2823
-248,-10745,3591
-248,-11001,3591
-248,-12025,5383
8,-13048,5895
8,-12536,6151
-504,-12537,5895
-760,-12793,5639
-504,-12537,5895
-248,-12793,6151
8,-13560,6151
-248,-13305,6407
-248,-13305,6663
-504,-12793,6663
-504,-12281,6407
-248,-12281,6151
-504,-12281,6407
-504,-12793,6151
8,-12792,6151
776,-12536,5895
1288,-12024,5639
8,-12024,5895
264,-12024,6151
8,-13560,5895
264,-13816,6151
264,-13048,5895
-760,-13049,4615
8,-12792,4871
264,-12792,5383
264,-12792,5639
8,-13304,4871
-760,-14329,4871
-1016,-15097,4871
-248,-15353,5127
-248,-15609,5383
-248,-17401,5127
-1528,-18937,4359
-1784,-19193,4615
-1272,-19193,4615
-1784,-20473,4359
-3064,-22777,5383
-3576,-24569,5895
-3832,-25593,5895
-3832,-25593,6407
-4088,-26617,7175
-3832,-27641,7175
-5880,-28921,8199
-6648,-28921,8711
-7672,-29945,10503
-7672,-30201,11527
-7928,-29177,11527
-7928,-27897,11271
-6904,-25593,11527
-6392,-24057,12039
-6648,-23545,11783
-6904,-22521,11271
-6392,-20729,11271
-4600,-18937,10759
-3832,-17401,9735
-4088,-16633,8711
-3320,-15097,8711
-3320,-14329,8455
-2552,-14841,8711
-2296,-14841,8711
-2552,-14073,8199
-2552,-12537,7943
-2296,-12537,7687
-1272,-12537,7687
-1016,-12025,8199
-1528,-11001,9223
-1016,-9465,9223
8,-5624,9479
1544,-5624,9479
2568,-4088,8199
3336,-248,2311
5128,1544,-3064
6151,1544,-4600
7943,3080,-5112
9991,6920,-6136
11783,7944,-6136
12039,5384,-6136
9991,1288,-3832
5639,-3064,-249
1543,-6392,2823
-504,-8953,4103
-760,-11001,4615
-1528,-12025,5639
-2040,-12281,5639
-2040,-12537,5639
-1784,-12537,5383
-1528,-12793,5383
-1016,-13049,5127
-1272,-12793,4615
-1272,-12025,4615
-1528,-12793,4359
-1272,-13561,4359
-1528,-14841,5895
-4088,-19961,9735
-6136,-24057,12807
-6392,-24057,13063
-4856,-18937,7431
-760,-6137,-2809
6151,11272,-19704
15367,30728,22536
23815,-18936,2056
29191,-17656,-9720
29190,-23800,-8696
21510,-32248,8968
11527,23048,28936
5895,12552,-21752
2311,2568,-11256
263,-4856,-3833
7,-8696,263
-248,-12537,3079
-760,-13049,4103
-760,-12793,4871
-760,-13561,6151
-1016,-14585,6407
-1016,-14329,6151
-504,-13817,6151
-248,-13049,6407
-504,-13561,7175
-760,-14073,7175
-1272,-14585,6919
-1272,-14585,6663
-504,-14585,6919
-248,-14585,7175
-504,-14329,7431
-248,-13817,7687
8,-13816,7431
8,-13816,7175
-248,-13561,6919
-504,-12793,7175
-248,-12537,6663
-248,-13305,6663
8,-13816,6919
264,-14072,6663
8,-14072,6663
-248,-13817,6919
-1016,-14073,6919
-1272,-14329,6919
-248,-14329,6919
8,-14072,6407
264,-14072,6151
-248,-14585,6407
-760,-15353,6663
-1016,-16633,6919
-760,-16633,6407
-248,-17145,6151
-760,-18169,5895
-1272,-19705,6407
-2040,-20217,6407
-2040,-20985,6663
-2040,-21497,6407
-2552,-22265,6151
-3320,-23545,6151
-4344,-23801,6407
-4856,-24057,6407
-4600,-24569,6919
-5112,-24825,7943
-6648,-25337,8199
-7672,-26105,8967
-7928,-26105,10247
-7672,-25849,12039
-7928,-25849,12807
-7928,-25337,12551
-7672,-23801,12807
-7160,-22777,12807
-5624,-20217,11783
-5112,-18169,10247
-5112,-18169,10247
-4088,-15353,10247
-4088,-14841,10503
-4088,-14841,9735
-2808,-14329,9735
-2808,-14073,9991
-2808,-13049,9735
-2552,-12537,10247
-2552,-13049,10247
-1784,-14073,10759
-1784,-14329,11527
-2552,-14073,12039
-2808,-12793,12295
-1272,-11257,13319
520,-9208,13831
1544,-7160,13319
1288,-4600,10503
2568,-760,4871
4872,1288,264
5896,1800,-1528
6663,4616,-3576
10247,8712,-5368
12807,8712,-5624
12807,5640,-4344
8711,2312,-1784
6663,1032,-760
1543,-3320,3079
-504,-5369,4615
-2552,-7161,6151
-3320,-8697,6919
-2296,-10233,7175
-1784,-11001,7431
-1784,-10745,8455
-3064,-11257,8455
-3320,-12281,8199
-3064,-12025,8199
-2296,-11513,8455
-2040,-12281,8711
-2296,-12025,8455
-2296,-13817,9735
-4600,-20473,14087
-7160,-24825,18183
-6904,-24057,17671
-5368,-17913,11015
-760,-3833,-2041
7687,14856,-19704
16903,-30968,24840
25351,-15608,5384
31751,-14840,-6136
30470,-24568,-1016
27142,-28152,4616
9991,21512,-28920
5127,11016,-16120
3847,1800,-5368
519,-4600,2055
-1784,-8697,6663
-1528,-11001,8455
-1784,-12793,9735
-1784,-12793,12295
-2040,-14585,14087
-2552,-16633,13831
-2296,-15353,13575
-2040,-14073,13831
-2040,-13817,13575
-1272,-13817,13319
-2296,-15097,14343
-3576,-16889,15623
-3064,-16633,15367
-3064,-16377,15367
-3064,-17145,15367
-2040,-15353,15111
-2040,-14073,15367
-1784,-14073,15367
-1784,-14073,15367
-1784,-14585,15111
-3064,-15609,15367
-2296,-14841,14599
-2296,-15097,14855
-1784,-14841,14343
-3064,-16121,14343
-3320,-17401,14599
-1784,-16121,15879
-504,-14329,15623
-1016,-14073,14855
-3064,-16633,15367
-3576,-18937,17159
-3320,-18937,16903
-2552,-18937,16391
-760,-18169,14343
-1016,-18169,14087
-3064,-19193,15367
-2808,-20217,15879
-3064,-23033,16135
-3832,-25081,16391
-3576,-25593,17159
-3576,-26873,17415
-4344,-28153,17159
-4344,-28153,16647
-5368,-28921,16391
-6136,-31225,17927
-6904,32519,19207
-7160,30215,20743
-8952,29191,22023
-8952,27911,22535
-8952,27143,23047
-9976,27655,24583
-10744,28679,25863
-10488,30215,26375
-9976,30983,26119
-9976,31239,26119
-9976,-32505,25607
-8952,-29177,24583
-7672,-27897,24071
-7416,-27385,23815
-7416,-25593,23559
-6392,-23289,22023
-5880,-22009,21255
-5624,-21497,21255
-5368,-20729,20999
-5368,-18425,19975
-4600,-16889,19207
-3576,-17145,19207
-3832,-17145,19207
-3576,-16377,19207
-3576,-14841,18951
-4856,-14841,18951
-2808,-11513,18951
-1784,-8953,18695
-504,-5881,17671
1032,-4088,15367
2056,-2808,10759
3080,-1528,6663
3848,776,4872
6664,2824,3336
8712,4360,2568
8968,4104,2568
9224,2824,3592
8456,264,4616
4872,-4600,6919
264,-7928,9991
-2296,-9465,11527
-2296,-10233,11527
-2296,-11513,11527
-2808,-13049,11783
-2808,-12793,11783
-2552,-12281,11783
-2552,-12281,11271
-1784,-12281,11015
-1784,-12281,10759
-1528,-11769,10503
-3064,-12025,10247
-2296,-11513,9479
-2296,-12537,10759
-2808,-16633,13831
-4344,-21497,16391
-5112,-22777,16647
-4344,-16889,12039
-760,-2297,1799
6664,16648,-15608
14599,-29944,28424
22023,-14584,9736
28423,-11512,-2296
30726,-20472,-2040
24326,32520,13576
13831,21256,-32504
7943,13832,-18424
4871,5896,-8696
2311,-2040,-2041
519,-6904,3847
-504,-9721,6407
8,-9720,6407
264,-9976,6663
264,-12024,8455
264,-12792,9991
-248,-12025,9479
-1784,-12281,9223
8,-12024,9223
-504,-12025,9735
8,-11512,9735
776,-11256,9223
520,-11000,8967
264,-11000,8711
520,-10744,8967
776,-11000,8711
264,-10744,8711
-504,-11001,8455
-248,-10745,8455
264,-10232,7943
520,-10232,7687
520,-10232,7943
264,-10232,7687
264,-9976,7687
520,-9976,7943
520,-9976,7687
264,-10488,7175
264,-10744,6919
520,-10744,6919
520,-10488,6919
264,-11000,6919
264,-11768,6919
-1016,-12281,6919
8,-12280,6151
-760,-13305,6407
-504,-14329,6407
8,-14840,6151
264,-15608,5895
-504,-17145,6407
-1016,-18425,6663
-1016,-19449,6663
-1784,-20729,6663
-2808,-22265,6919
-3576,-23545,6663
-3576,-24569,7687
-3576,-25337,8711
-4088,-26105,8967
-5112,-27385,9223
-5880,-27897,9991
-6136,-27897,11015
-6648,-28153,12039
-7160,-27897,12295
-7160,-27129,12551
-6648,-25849,13063
-6136,-24057,13319
-6392,-22777,12807
-6392,-21497,12295
-6904,-20985,12295
-4088,-17913,11015
-4088,-16633,11015
-3832,-15865,10247
-3320,-14841,8711
-2552,-13305,8455
-2296,-12537,8455
-2296,-12281,8455
-2296,-12281,8199
-2296,-12281,7943
-1784,-12025,8199
-1272,-11257,8199
-1272,-10745,8199
-504,-9977,8711
520,-7672,9223
1288,-5368,9223
2056,-4088,8199
2824,-2808,6663
3848,-504,2823
5384,2056,-2040
6407,2312,-3832
7687,3848,-4344
10247,6664,-5112
11783,7176,-4856
11783,5128,-4600
9735,3336,-4088
6407,-2808,-249
1799,-6136,3591
264,-7928,4871
8,-9976,4615
-1016,-11513,5639
-1784,-12537,6663
-1784,-12537,6919
-1784,-12537,5639
-1784,-12537,4871
-1272,-12025,4871
-760,-12281,5383
-760,-12281,5639
-1016,-12281,5639
-1016,-12281,5127
-760,-12793,5383
-2296,-17401,9223
-4856,-22777,13063
-5624,-24569,14343
-4856,-20729,9991
-1528,-8441,7
3592,8456,-14584
11271,27144,30728
19207,-20216,9992
25351,-15352,-3576
25350,-16376,-5624
21254,-30200,8456
10503,26376,27144
6151,16904,-23800
4359,6152,-12024
1543,-3064,-4089
519,-7416,7
264,-10232,2823
8,-12024,4103
-248,-12537,5127
-248,-13561,5895
8,-13816,6151
-504,-14073,7175
-248,-13561,7175
8,-13048,7175
-248,-13305,7175
264,-13304,7175
264,-13816,7431
264,-14072,7687
8,-14072,7943
8,-13560,7687
520,-13304,7431
520,-13304,7175
264,-13304,7431
8,-13304,7687
-760,-13305,7687
8,-13048,7175
8,-13560,7175
8,-14072,7175
264,-14072,6919
8,-13560,6663
264,-13304,6407
520,-13816,6663
264,-14584,6663
-504,-14841,6663
-248,-14585,6663
8,-14328,6407
8,-15096,6407
8,-15864,6407
8,-16120,6407
-248,-16377,6151
-1016,-17657,6151
-1016,-19193,6407
-1016,-19961,6407
-1272,-19961,6151
-1272,-20729,5895
-1528,-22777,6151
-1784,-24057,6151
-3064,-24825,6663
-4088,-25849,7431
-5624,-27385,8199
-5112,-29177,8455
-5624,-29433,9479
-5368,-29689,9991
-6648,-30457,9991
-6904,-30713,11015
-7160,-30969,12295
-7416,-29945,12807
-7672,-28665,13063
-7928,-28409,12807
-7928,-27897,13319
-6904,-25337,13319
-5624,-23545,12551
-5880,-22265,12295
-5624,-21241,11271
-5112,-19705,10503
-3832,-18169,10503
-3832,-17913,10503
