7431,7944,-31480
5383,6920,-29176
4871,6152,-28152
4871,4872,-26616
4103,4616,-23544
1799,3592,-19960
-1017,1543,-17400
-1529,1287,-16888
-3833,1287,-15352
-1017,2567,-15352
519,3592,-15096
-1273,1543,-15096
-1529,-1017,-16377
-2041,-1529,-18681
-3321,-2297,-22009
-2809,-2041,-24569
-2553,-2297,-24825
-3065,-3577,-24825
-3065,-3833,-24825
-3577,-3577,-25081
-3577,-3833,-24825
-2297,-4601,-24313
-2297,-6137,-22521
-3065,-7161,-20985
-4089,-8185,-20473
-4857,-9465,-19705
-4857,-10745,-18937
-4857,-11513,-18169
-5113,-11769,-17401
-5625,-11769,-17401
-5369,-11769,-16889
-4601,-12281,-16377
-3833,-12537,-16377
-5625,-14073,-15097
-8441,-15609,-13305
-9977,-17657,-12025
-10489,-17657,-11257
-10233,-17657,-11257
-9721,-17401,-11513
-10233,-17401,-11513
-11257,-17913,-11257
-12025,-18425,-11001
-12281,-18681,-11257
-11513,-17145,-11769
-11257,-16633,-11513
-12025,-17401,-11257
-12281,-18169,-11257
-12793,-18681,-11257
-12793,-18169,-11513
-12025,-17145,-11257
-12281,-17145,-11001
-12793,-18169,-11001
-13305,-18681,-11257
-12793,-17401,-10745
-10745,-15097,-9465
-10489,-14841,-8953
-12025,-16633,-8953
-12793,-17145,-9465
-12793,-16889,-9209
-11769,-16889,-9209
-11769,-16889,-8441
-12537,-16889,-8697
-12537,-16633,-8953
-12025,-16633,-8953
-10489,-16889,-9209
-10489,-16889,-9465
-12025,-17145,-8697
-12281,-16889,-8441
-11513,-16633,-8953
-11513,-16633,-8697
-11769,-16377,-8441
-12281,-16121,-8697
-11769,-16121,-8697
-11001,-16121,-8697
-11257,-15865,-8697
-11769,-15865,-8697
-12281,-16633,-8697
-12793,-17657,-8441
-12537,-17657,-9209
-10745,-15609,-9209
-7929,-11769,-8185
-7929,-11513,-7929
-8441,-12281,-7929
-10489,-14585,-7929
-10489,-14841,-7929
-10233,-14329,-8697
-9977,-13049,-8441
-10233,-13049,-7673
-11513,-13305,-7673
-10489,-13305,-7417
-8697,-12537,-7673
-7673,-11513,-8185
-7417,-11513,-7929
-7161,-11257,-7929
-6905,-13561,-8185
-5881,-15353,-8185
-4345,-12025,-7929
-2297,1799,-9720
2311,23816,-17144
11015,-20472,-28920
17159,-2552,26376
16647,9736,19977
4615,15624,19721
-19705,15367,27913
29191,-505,-25848
24327,-31737,-12536
15623,-761,4359
11272,-9465,8967
6920,15111,24071
12808,8455,27655
21000,11271,26887
29960,19463,21511
-24056,31495,13319
-12536,-24057,3335
-7672,-19193,-4089
-6905,-17913,-7673
-4601,-16121,-9209
-3065,-16889,-8697
-3833,-19193,-7417
-4089,-19193,-7417
-3577,-17913,-8953
-2809,-17657,-10233
-2041,-18169,-9209
-1785,-18169,-8697
-1785,-17913,-9209
-761,-17913,-9977
1031,-17912,-9977
1799,-18168,-10233
1031,-18424,-9977
1031,-18680,-10489
1799,-18936,-11001
3079,-18168,-11001
3847,-17144,-11257
4871,-16120,-11513
4871,-16120,-11513
5639,-15352,-11257
5895,-15096,-9721
5639,-13816,-8441
6151,-12280,-8697
7687,-10488,-8441
8711,-8696,-8441
8455,-7672,-8953
8711,-7160,-10489
8967,-8184,-12537
9223,-8184,-14073
11271,-6136,-17145
11271,-4856,-20473
11527,-4088,-22009
11783,-2808,-21753
11271,-3064,-21753
10503,-3320,-21753
9991,-3320,-21497
10503,-2552,-21241
11271,-2296,-21241
11527,-2296,-20217
11015,-2296,-19449
10503,-2040,-18681
9735,-1784,-18681
9991,-248,-18681
11015,1032,-18424
10759,2056,-18424
9991,2568,-18680
9479,3592,-17912
9479,4104,-17912
9479,4360,-16632
6919,4104,-14584
3847,3336,-13048
2311,1288,-12024
1031,264,-11256
775,520,-10232
775,1032,-9720
263,776,-9976
-249,-249,-9465
-505,-1017,-8697
-1529,-1273,-8441
-2041,-1273,-7929
-2041,-1529,-7673
-2297,-2297,-7673
-2041,-2809,-7161
-1785,-2809,-7161
-1529,-2809,-7161
-2297,-4089,-6905
-2809,-4857,-6905
-1529,-3833,-6649
-249,-2809,-6905
-505,-2809,-7161
-505,-3065,-6905
-249,-3321,-7161
7,-3832,-7929
1031,-4088,-8697
1543,-3576,-8953
1287,-3064,-8953
263,-3576,-8953
7,-5368,-8953
-249,-5625,-9209
1031,-3320,-8953
2311,-1528,-8441
1543,-1784,-8185
1287,-3576,-8185
1287,-4344,-8697
263,-4344,-9209
7,-4344,-8953
263,-4856,-8441
7,-5624,-7929
263,-5368,-7929
519,-5112,-8185
775,-5112,-7673
7,-5112,-7161
-1017,-5625,-6649
-1017,-5625,-6393
-505,-5369,-6649
-505,-5113,-6905
-761,-5113,-6649
-249,-5369,-6393
-249,-5881,-6393
-505,-6137,-6137
-761,-6137,-6137
-1529,-5881,-6393
-1785,-5881,-6137
-1273,-5881,-5881
-1017,-5625,-5881
-1017,-5369,-5881
-1273,-4601,-5369
-1529,-4601,-5113
-1017,-4601,-4857
775,-2808,-5113
263,-2040,-5369
-1785,-4345,-5113
-1529,-8441,-5369
263,-10744,-5113
263,-5112,-4345
3079,13832,-8696
3591,21512,-11256
16903,-6392,-29944
19975,9480,27145
17415,16904,22537
1287,18952,27401
-25849,9479,-22263
25863,-16889,-6136
20999,15367,8968
11016,-15609,23559
7176,24327,32519
14600,15367,-31481
23048,16391,-32761
-32504,22791,27655
-22008,-31993,17671
-11512,-19961,4615
-3320,-14073,-3577
-505,-12537,-5113
519,-11768,-6137
263,-11512,-7417
263,-13304,-6649
1799,-14072,-5881
2823,-13048,-5881
3847,-11512,-6393
4359,-11512,-6393
3591,-13304,-6393
2567,-14072,-6393
2311,-14328,-6649
3079,-14328,-6905
5127,-14328,-7929
5895,-14584,-7929
5127,-14840,-7929
5127,-14840,-8185
6663,-14840,-8697
7943,-14840,-9721
7943,-15096,-9465
7943,-14584,-9209
8967,-13816,-9977
9479,-13304,-10489
9223,-13304,-9721
9479,-12792,-7929
9735,-11768,-6905
11271,-9720,-6905
13831,-7416,-7673
14343,-6648,-8441
14087,-5368,-8697
15367,-4344,-8697
15623,-4344,-9977
14343,-5624,-13305
14599,-4856,-16633
15367,-2040,-18937
16647,-760,-19449
17159,8,-21240
16391,-760,-23033
17415,1800,-23032
18695,3592,-22776
17671,3336,-23032
16135,3336,-22008
14343,2568,-20472
13575,2568,-19960
13831,2312,-18936
13063,2824,-18168
11527,2824,-17656
10759,2312,-16632
10759,2824,-15864
10503,3080,-15096
8967,3080,-14072
7943,3080,-13304
7943,2056,-12280
7687,520,-11256
5639,8,-9976
3335,-760,-8953
2311,-1272,-7929
2311,-2040,-7161
1287,-2808,-6905
-505,-2553,-6649
-1017,-2553,-6393
-1017,-3065,-6649
-1017,-3577,-6649
-2041,-4345,-6393
-2553,-4601,-6649
-2809,-6393,-7161
-1785,-6393,-7417
263,-4088,-7161
263,-4344,-7417
263,-4344,-7417
7,-4856,-6649
-1017,-7161,-6649
-1017,-7161,-6649
-761,-7161,-6649
-761,-7417,-6905
-1017,-7417,-6905
-1785,-7929,-6905
-2041,-7929,-5881
-1273,-7417,-4857
-505,-7161,-5625
-761,-7929,-6137
-1017,-8441,-6393
-2041,-8441,-5113
-2297,-8441,-3833
-761,-8185,-3833
-505,-8185,-4601
-1017,-8697,-4857
-1017,-8697,-4857
-3833,-10489,-4857
-2297,-9465,-4857
2055,-5624,-4345
2055,-5368,-4089
-761,-7417,-3577
-1529,-7673,-3321
-1529,-7929,-3577
-1529,-8441,-3833
-1273,-8697,-3833
-1273,-8697,-3833
-1529,-8441,-4089
7,-6904,-3833
7,-7160,-3833
-2297,-9209,-3065
-1529,-8441,-3065
-761,-7673,-3321
-1017,-7417,-3321
-1017,-7417,-2809
-1273,-8185,-2553
-2041,-8697,-3321
-1273,-8185,-4345
-1273,-7929,-4089
-1273,-8185,-3577
-1273,-8697,-3321
-1785,-8953,-3321
-1785,-8185,-3321
-2297,-7417,-3833
-2041,-8185,-3833
7,-10232,-3577
-505,-14841,-3833
-505,-9977,-3577
3847,9992,-6648
11527,32520,-15864
19463,-13048,-28152
23303,2056,27657
20743,9736,23817
2567,13320,28937
-27129,5639,-23031
25095,-17401,-9464
23303,15111,5384
11016,-20473,22279
5384,19207,31751
9992,5895,-31225
17928,4871,-31225
31240,14087,32007
-23544,24583,25095
-15864,-31225,11783
-12280,-28665,7687
-504,-17913,-2553
519,-16632,-4345
263,-17144,-5881
775,-19192,-6137
2055,-19192,-5881
3335,-18168,-6905
3079,-18168,-8441
1799,-19192,-8441
3079,-18936,-7417
3591,-18936,-7673
3847,-18936,-7673
4871,-19192,-7673
4359,-21496,-8185
5127,-21752,-8185
5639,-20728,-9209
4359,-20728,-10745
6151,-19448,-11001
7431,-19704,-10745
8199,-20472,-10489
10503,-18936,-11513
10759,-19192,-12793
10247,-19704,-12793
11527,-16888,-12537
12551,-16888,-12537
13063,-16888,-13305
13319,-15864,-12281
10503,-17656,-11513
10503,-15608,-10489
15879,-9464,-10489
19463,-6648,-11513
18695,-6904,-11257
17159,-7160,-11513
17927,-6904,-14841
18695,-6904,-19449
18951,-4088,-22777
19207,-3064,-22777
18183,-4600,-23033
17927,-3576,-24569
18439,-1272,-26361
17927,-504,-26361
17927,776,-25848
18439,1032,-25336
17159,8,-24312
15111,-248,-22777
13575,-248,-21753
12295,-1272,-20985
11271,-1272,-20217
11015,-1528,-18937
10759,-2040,-16889
10247,-2040,-16121
9991,-2040,-15865
9991,-2808,-15353
7943,-3064,-14329
5639,-4088,-12793
3847,-7416,-10745
1287,-8696,-9209
-1017,-9721,-7673
-1529,-11257,-6905
-1785,-11001,-6393
-4345,-13049,-5369
-4601,-14073,-5369
-2297,-11257,-5369
-249,-9977,-5113
519,-9976,-5113
-761,-9721,-5113
-1785,-11257,-5625
-1785,-12281,-5881
-1273,-12281,-5881
263,-12280,-5881
1031,-12280,-5369
-505,-12281,-5369
-761,-12537,-6905
-761,-13049,-7673
-761,-13049,-6649
-505,-13561,-5625
7,-12536,-5881
-505,-12537,-6905
-505,-13049,-7161
-505,-13561,-7161
-249,-13817,-7161
1287,-13304,-7161
2567,-11256,-6649
1031,-11512,-6393
7,-12792,-6393
-249,-13305,-6905
7,-13048,-7673
1543,-11256,-7417
1287,-10744,-6137
-249,-12537,-5881
-761,-13049,-5625
-1017,-13049,-5881
-1529,-13049,-5881
-1273,-12793,-5369
-761,-14073,-5625
7,-13048,-6905
1031,-10744,-7161
-761,-10745,-6137
-1785,-12025,-5369
-1017,-12281,-5625
-1017,-12537,-7161
-1017,-10489,-7161
-1785,-9721,-5625
-2041,-11769,-5369
-2297,-12793,-5881
-3065,-12025,-5881
-1785,-11513,-5881
-505,-10745,-5881
-1273,-11001,-5625
-1529,-11257,-6137
-1529,-10489,-6649
-1785,-10489,-6905
-1785,-10745,-6393
-761,-9721,-5113
-505,-8953,-4857
-505,-8441,-5881
775,-8184,-6649
-761,-8953,-6649
-2297,-10745,-5881
-761,-13049,-5881
263,-12536,-5625
1799,-3320,-6905
5383,15112,-12792
11783,-30456,-22008
19975,-12792,-30712
22535,-8184,31752
17415,15368,20489
-5881,21255,26377
-29945,15623,-26871
29703,-8185,-15608
23047,15879,2312
11016,-23801,22279
10248,18951,31239
14088,9735,-31225
19464,7175,-30457
29192,12295,30471
-27384,22023,25351
-17144,-31225,16135
-7160,-21497,3335
-1016,-17145,-4857
263,-15608,-6649
263,-15864,-6905
2311,-16120,-7673
2823,-16632,-8441
2567,-16376,-8185
4615,-14584,-7929
4359,-14840,-7673
3847,-16888,-7929
4359,-17656,-7929
5127,-17400,-8185
6151,-17400,-8697
7175,-17400,-8697
6919,-17912,-8441
6919,-17656,-8953
7175,-17656,-9465
8711,-17400,-10489
9479,-17656,-11513
9479,-17656,-11513
9479,-17400,-11769
10247,-17400,-11769
12807,-15352,-11769
12807,-14840,-11513
11783,-15864,-13049
14087,-14072,-14585
15367,-12536,-14841
15111,-12280,-14841
14599,-12280,-14841
14343,-11512,-14329
14343,-10488,-12281
14343,-9976,-11001
14343,-8696,-10489
15623,-5624,-9721
16135,-4344,-9465
16391,-3576,-9721
16647,-1784,-9977
15879,-1272,-9721
15623,-1016,-11513
15879,-1016,-15097
16135,776,-18168
16135,2824,-19704
16391,4872,-20728
17415,7176,-21240
17415,8968,-21496
15879,9480,-21496
14599,9480,-20216
12295,7944,-19448
11015,6152,-18424
10247,5384,-17144
9223,4360,-15608
8967,4360,-14072
7431,3848,-12792
6919,2824,-11768
6919,2568,-11000
6407,2568,-10488
6663,2824,-10232
6407,2312,-9976
5383,776,-9208
4615,-1528,-6905
3079,-2040,-5113
2311,-2552,-5113
1287,-3576,-4857
263,-4856,-5113
263,-4344,-4857
775,-3064,-4601
2055,-2296,-4857
3335,-1528,-4857
2823,-1528,-4601
2311,-1528,-4345
2567,-1528,-4857
2823,-1784,-5625
3079,-1016,-5881
3335,-760,-5881
4103,-760,-5625
4871,-248,-6393
4615,-504,-7417
4871,-248,-7673
5895,520,-7928
6407,776,-7672
6919,1032,-7160
7175,1288,-7160
6663,1288,-6904
6151,1032,-6904
5639,264,-6904
5639,8,-6904
5383,264,-6904
5383,520,-7160
5639,264,-6136
5895,264,-4856
5383,264,-4856
5127,520,-5624
5127,520,-5880
4359,-1016,-5625
3591,-1272,-4089
3591,-760,-3833
3847,-760,-4089
3079,-504,-4089
2311,-504,-3577
2823,-248,-3577
4103,264,-3576
4359,8,-4088
3847,8,-4344
4103,520,-4088
3847,264,-3832
3847,264,-4088
3591,264,-3832
2823,-248,-3833
2823,8,-3064
3335,264,-2552
3591,776,-2808
3335,1032,-2552
3079,8,-2808
2823,8,-3064
3335,1032,-2808
3591,1032,-2808
3847,1544,-2552
3591,1800,-2808
2823,776,-3064
2823,776,-3064
3079,1032,-2808
3079,1032,-2296
2823,1800,-1784
3591,8,-2296
3591,-4088,-2553
3335,-3320,-2809
5383,12552,-4600
12807,-28152,-12536
22023,-5880,-23544
26119,9992,31753
25095,20744,24585
13063,25608,25097
-11257,24071,-28407
-29945,4615,-13047
30215,-28153,8
23304,6151,13320
16392,-21497,26887
15624,-30713,30983
25096,20743,-31225
-31992,25095,31495
-22520,-31737,26119
-11256,-19961,16135
-1784,-11257,4103
2056,-7160,-1273
3591,-5368,-2297
5383,-5112,-2809
6151,-7416,-3321
6151,-8952,-3577
6151,-8184,-3321
6151,-7928,-3833
6663,-8184,-4089
8455,-7928,-4089
8455,-7416,-3577
7943,-7160,-3577
8455,-6904,-3833
8967,-7160,-4345
8967,-8696,-4857
10503,-8440,-4857
11527,-8184,-5369
11271,-8184,-6393
11783,-8184,-7161
12807,-7928,-6905
13063,-7928,-7161
13831,-7928,-6649
13319,-7928,-4857
12551,-7160,-3065
14343,-4856,-3321
15623,-3320,-4345
16135,-3064,-5625
19719,264,-6136
20999,2312,-6648
20487,1288,-8184
20999,1288,-10744
21255,1544,-14328
20743,1800,-17912
21255,3592,-19192
21767,4872,-19448
22535,4872,-19704
22279,5640,-19704
22279,6408,-19704
21767,7176,-19448
20487,6408,-18168
19975,5640,-17400
19719,5896,-17144
18183,5896,-16888
17927,6152,-15864
18183,6408,-15608
17927,6664,-15352
17415,8712,-14328
16903,9224,-14072
16391,8968,-13304
15111,9224,-12280
12807,8456,-11000
12551,8456,-9208
11271,7944,-7160
7687,5896,-6648
6407,5384,-6648
6151,5384,-6136
6151,5128,-5368
5383,4616,-4600
5127,4616,-4088
4871,5128,-3320
4359,5128,-3064
4103,4104,-3064
4103,3848,-3064
4103,4104,-2808
4103,4104,-2808
5127,3848,-2808
4871,4104,-2808
4103,4104,-3064
4359,3848,-2808
5127,3848,-2296
5383,3848,-2552
5127,2568,-2808
5127,2312,-3064
4615,1544,-3320
4871,2056,-3064
5383,3336,-2808
5895,3336,-2552
6663,3336,-2808
5895,3080,-3064
5639,2824,-3064
5639,2824,-3320
5895,2568,-3576
6151,2312,-3320
5895,1544,-2552
5127,1288,-2040
4871,1800,-2040
5127,1800,-2040
5639,1800,-2040
5639,2056,-1784
4359,1288,-2040
3079,1032,-1784
3079,776,-1784
4615,1288,-1528
5127,1544,-1784
3847,1288,-1528
2567,520,-1528
2055,-760,-1273
2567,-760,-1529
3847,1288,-1272
3847,1288,-1272
2823,1032,-1272
2823,1032,-760
3591,1288,-504
3335,1288,-248
3335,776,-760
3079,776,-1016
3335,776,-760
3079,1032,-760
3079,1288,-1016
3335,1544,-1272
2823,1544,-1528
2823,1800,-1272
3847,3080,-1272
4103,2568,-760
3591,-1272,-761
3847,-3832,-505
4871,520,264
6920,16392,-3064
11783,-26872,-12536
18439,-5880,-24056
21511,520,-27639
23559,23304,28169
10503,26120,30473
-18169,18695,-20983
30983,-2809,-5112
28167,31495,9224
19208,-1785,24583
11784,-29945,-30201
15624,23047,-26873
24328,22279,-27129
-29944,27143,-31225
-20472,-29689,26887
-10744,-17401,14343
-760,-8185,3335
4360,-5624,7
5128,-5624,-761
4871,-5624,-2041
5383,-6136,-2041
6919,-6136,-2297
8199,-5880,-2297
7175,-6392,-2297
6663,-6648,-2809
6919,-7672,-2809
7687,-8184,-3321
9223,-7160,-3321
10247,-6648,-3577
8967,-8696,-4089
10247,-8440,-4089
9991,-8184,-4089
10503,-8440,-4601
13575,-7160,-4601
13319,-7416,-4857
12551,-7928,-5369
13575,-7672,-5369
14087,-7928,-4857
14343,-7160,-3321
13575,-6136,-2041
12807,-5624,-1785
14343,-4088,-2809
16903,-2296,-3833
19463,-248,-3833
20743,1544,-4600
20999,1032,-7160
21255,776,-11256
21511,1544,-14328
21511,1800,-16120
21511,2824,-17912
22535,4360,-19448
23047,5128,-19704
22791,4872,-19192
22535,5640,-19192
21255,6152,-19192
21255,6152,-19192
20999,5384,-18680
20487,5384,-17400
19719,6920,-16120
18695,7688,-15864
18439,7432,-15096
17927,7432,-14328
17671,9224,-13560
17671,10760,-12536
17159,10504,-12536
15879,8968,-11768
12295,6664,-10232
9735,6152,-9208
9991,7432,-7416
9479,6664,-5624
6919,4872,-5112
5895,4872,-4856
4359,4360,-4600
2823,4104,-3576
3335,4360,-2808
5639,4360,-2808
6919,4616,-3320
6663,4616,-3576
6663,4616,-3832
5127,4104,-2808
4103,3336,-2296
4359,2568,-2808
5127,2568,-3064
4871,2056,-2808
4615,2056,-3064
5127,2568,-2552
5383,2312,-2296
5639,2568,-2296
5639,2824,-2040
5895,3080,-2296
5895,2824,-2040
5895,1544,-2296
6663,1544,-2808
6407,1544,-2552
4359,264,-2552
4871,520,-2552
7431,2056,-2296
8199,2568,-1784
6151,2312,-1016
4871,1544,-760
5127,8,-1016
4871,8,-1272
4871,1032,-760
5383,1544,8
4872,264,8
4616,264,-248
3335,8,-760
3847,-248,-761
6151,8,-760
5383,8,-760
4615,8,-760
4359,8,-504
3335,-1016,-249
3847,-1016,-505
4359,-760,-249
3079,-248,7
2824,-248,263
2568,-760,263
2824,-760,263
4104,-248,-249
4359,520,-504
3079,264,-504
1799,-760,-505
2055,-1016,-249
2055,-248,-249
2567,520,8
3336,1800,8
3336,1800,264
3592,1032,520
3848,-248,-249
4615,-2808,-1017
3847,-5368,-761
2823,-504,7
5640,17416,-3832
14087,-24312,-13304
23303,-4088,-24312
25607,9224,32521
22279,17160,27657
6151,21256,32009
-19705,15111,-19447
31495,-10233,-3832
26119,21255,11528
16648,-11257,27399
13320,29191,-30457
17928,15623,-28153
23304,15367,-28153
-31480,23047,-31225
-18168,-30457,25607
-8440,-19705,13319
-2808,-14585,2823
520,-12536,7
3848,-9464,-1273
7431,-6904,-2553
8455,-7416,-2297
8199,-9208,-1273
8199,-8952,-1273
8199,-8952,-2809
6663,-11256,-3833
7431,-12024,-3321
9479,-11000,-3321
9479,-10744,-4089
8199,-10744,-4089
7175,-12536,-4089
7175,-14840,-3321
10503,-14328,-3577
13063,-12536,-5625
13575,-12792,-6905
13319,-13816,-6393
13319,-13816,-5881
14343,-13816,-6137
15367,-13304,-7417
15623,-13048,-8441
15879,-13304,-8185
16135,-12280,-7929
15623,-11768,-7673
15367,-11256,-6137
16647,-8184,-4857
18183,-6136,-4857
19463,-5368,-5625
20743,-4856,-6905
19975,-4856,-6649
19975,-4856,-7417
20231,-5112,-11257
21767,-3064,-16121
24327,1800,-18424
23815,3848,-18936
21767,3080,-20472
21767,2824,-21752
22023,2824,-21496
21767,2568,-20984
21767,2568,-19960
20999,3080,-19960
18951,3336,-20216
18183,3080,-19704
18183,3592,-18424
18439,3848,-16632
16135,2824,-15864
13063,1800,-15352
13319,2056,-14072
14855,2312,-13304
13831,1288,-11768
12551,1288,-11256
10247,8,-9976
10247,-1016,-8697
7687,-5368,-5113
5639,-5112,-4601
3335,-4856,-4089
2567,-5368,-3065
2823,-5880,-2041
3079,-6136,-2297
1799,-7928,-2297
519,-8184,-1785
775,-7672,-1785
263,-8184,-1785
263,-8696,-1785
-761,-9209,-1529
-505,-9465,-1529
3079,-8184,-1273
3079,-7672,-1017
1031,-8184,-1529
1031,-8696,-2041
1543,-9208,-3577
1799,-9464,-3577
2311,-9464,-2809
2567,-9720,-2809
3847,-9976,-3065
3847,-10488,-3065
3079,-10232,-2809
3079,-9720,-2809
2823,-10488,-3065
3079,-10488,-3065
3591,-11000,-2809
2823,-11768,-2809
1543,-11768,-3065
775,-11512,-2809
519,-11512,-3065
2567,-11000,-2553
3591,-10488,-1785
1543,-10488,-1785
519,-10488,-1785
775,-11256,-1785
-1529,-12793,-1785
-3321,-12025,-1529
-2297,-11257,-1785
7,-11256,-1785
7,-11256,-1785
-505,-12025,-2553
-249,-11257,-2809
-249,-10233,-2297
-505,-10233,-1785
2055,-10232,-1785
3591,-9976,-2809
2823,-10232,-3065
2823,-10232,-3321
3335,-11000,-3065
4103,-11000,-3065
3591,-10744,-3065
2055,-10744,-2809
1287,-10744,-2553
1031,-9976,-2809
1031,-9720,-3321
1031,-10232,-3321
1031,-9720,-3321
3847,-7416,-3321
5383,-6904,-2809
2823,-8184,-3065
1799,-9976,-2809
4359,-12024,-3577
4359,-12024,-3577
3847,-5624,-3833
6151,12808,-7416
13319,-32504,-15864
21511,-15608,-26872
25863,1544,28937
22279,14088,24073
-505,19719,29705
-25849,16903,-24311
-31481,-6137,-14072
-31225,-16377,-9720
15367,-19961,25095
11016,18439,-31225
14344,8455,-28665
21512,7175,-26873
30472,11271,-29945
-25848,19975,29447
-14328,-32761,18951
-5368,-21497,7687
-504,-17145,1031
3080,-15864,-2553
4359,-14840,-4857
5127,-15864,-4601
7175,-16888,-4089
7175,-17656,-3833
6663,-17656,-5369
8455,-14328,-5625
8455,-14584,-4601
8199,-16888,-4601
9479,-16888,-5369
9479,-16632,-7161
9991,-17656,-7161
11015,-17400,-4857
10503,-17400,-4857
10759,-18168,-6649
11015,-18168,-7417
13063,-18168,-7161
14855,-18168,-7161
14599,-18168,-6905
12807,-18168,-8185
13063,-17912,-8697
15623,-17144,-9209
17415,-15608,-10233
15111,-15608,-10745
13831,-15608,-10745
17671,-12792,-9721
19975,-11000,-8185
19463,-11000,-8185
17415,-10232,-7417
15367,-8440,-5881
17415,-7416,-6137
19975,-5880,-5881
20231,-4344,-6649
19719,-4344,-8697
19719,-5624,-11001
21255,-5368,-14073
23047,-3320,-16377
22279,-504,-17401
20487,264,-17656
20231,1288,-17656
20487,2568,-17656
19207,5128,-17400
17927,5384,-17400
17159,5640,-16888
16647,4616,-15352
15367,4360,-14072
14855,4104,-12792
13575,2824,-12280
11527,1288,-11256
11271,1288,-9208
11015,1544,-8696
11271,1032,-8952
12039,1032,-8696
12039,1800,-7672
10759,520,-6648
8199,-1528,-4089
5383,-3832,-2809
4615,-5112,-2809
5639,-4856,-2041
5639,-4856,-1017
4871,-5880,-1017
3847,-5880,-1017
3591,-5112,-1017
4615,-4600,-1017
4359,-4344,-761
4615,-3832,-761
6407,-3832,-1529
5127,-3320,-1017
5127,-3064,-761
5383,-3320,-1273
5383,-3576,-1529
9735,-3064,-2553
13575,-2296,-3833
12551,-1016,-4089
12295,8,-4088
12295,-248,-4345
12039,-1016,-5113
11783,-504,-4601
10247,-248,-4089
8711,-1016,-3577
7687,-1784,-3065
7943,-2296,-3065
9223,-1784,-3321
9223,-1272,-2809
10759,-1016,-2553
11271,-1016,-3321
10503,-1528,-3321
10759,-1528,-3065
9735,-1528,-2297
6663,-2552,-1273
6151,-2552,-1273
7687,-2296,-1529
9735,-2296,-1785
11783,-2296,-1785
11527,-2040,-1785
11271,-2040,-2041
10247,-1528,-2297
9991,-1016,-2297
11271,-1016,-2297
10247,-1784,-2297
7431,-3064,-2041
7687,-3064,-1017
9735,8,264
10248,1032,264
9736,-1016,-761
9479,-1784,-1017
7687,-2040,-761
6919,-1016,-505
8455,8,264
8712,8,520
7688,-760,775
7688,-1528,519
8200,-760,7
8968,520,264
10504,520,8
11528,264,-504
9991,8,-504
9223,520,-504
10759,520,-504
12551,-3064,-249
13319,-4088,263
13320,3592,264
14856,22536,-5368
22791,-19704,-15608
31751,8,-26359
-31225,14344,30729
29191,22536,26889
8711,23304,-32503
-17145,13063,-18167
-28665,-13817,-3064
-31993,18951,11016
27144,-9977,24839
25352,32263,-32249
30472,21511,-28409
-29176,22535,-28153
-24312,27655,-30713
-14840,-28409,27143
-248,-16121,13831
8456,-9464,3335
10760,-7672,519
11528,-6136,263
11784,-6136,263
13320,-7928,7
15112,-8440,-505
16903,-7672,-1017
19463,-6136,-2297
19207,-5880,-2553
17671,-7160,-2041
17671,-7416,-1785
18183,-7416,-1785
18695,-7672,-2297
18695,-7672,-2553
18951,-8184,-2297
20231,-8184,-2297
21255,-8440,-3065
22279,-8440,-4089
22023,-8184,-4857
21767,-8440,-4857
23815,-6648,-4089
24071,-6648,-3065
23047,-6648,-1785
24327,-4856,-505
27143,-2552,-505
29703,-1272,-2297
29447,-248,-3321
28167,-248,-3321
29191,1288,-4344
29959,1800,-5112
31495,2568,-8696
31239,3080,-12024
29703,3848,-13816
30727,4616,-15352
30983,5640,-16120
30727,5896,-16632
30727,5896,-16376
30727,6408,-16632
-31993,7432,-17400
-31225,7944,-17656
32263,7432,-15608
30983,7688,-14328
30727,7944,-13560
30727,8712,-13304
28423,8968,-13560
25863,8200,-11512
25863,8968,-10744
26887,10504,-11000
27399,12552,-10232
27399,12808,-9464
25095,8968,-8952
24071,6664,-7416
24071,6920,-7160
20999,7688,-4600
20231,9480,-2296
20231,8456,-1272
18183,6408,-1272
15623,6152,-1272
15111,6408,-1272
17671,6408,-1016
17671,6664,-760
14599,6408,-760
13319,4616,-760
14343,3080,-760
16391,3592,-504
18439,6408,-760
17671,6664,-504
15367,4104,-504
16391,3848,-248
18951,5640,-248
18951,6152,-504
18695,5896,-504
18951,5640,-504
18695,4616,-1016
19463,4872,-1016
20231,6152,-1016
20231,5896,-1016
20231,6152,-1272
18951,5896,-1272
18951,5896,-1272
20231,5640,-1272
20231,5640,-1272
19975,6152,-504
19207,6664,-248
18951,6408,-760
19975,5640,-1016
21255,5128,-1528
19719,5128,-1272
17159,5384,-760
16903,4616,-248
18695,5128,-248
20487,5384,-248
18951,4104,-760
17671,3848,-760
19463,5640,-248
19719,6152,776
17160,5384,1544
15624,5128,1800
15624,3592,1288
17928,3592,776
19464,4872,776
18952,4616,520
17672,3848,520
17672,3848,520
19464,4872,776
20744,6408,776
19208,6408,1032
17928,5640,1288
17672,4872,1288
17416,4872,776
17416,5640,1032
17160,5384,1032
17416,5128,264
18696,5640,520
20488,4360,520
17928,776,1032
14600,1544,2056
18696,17928,-504
27655,-22264,-8696
-29177,-1272,-20216
-25081,14856,-30199
-26105,24584,29705
29447,29448,29961
5639,26376,-24055
-14841,5383,-7415
-22265,-27385,8200
-31480,6151,24072
30984,-1785,28423
31496,28423,-25849
-28664,23559,-25081
-19960,27655,-27897
-8440,-26617,30471
4104,-14072,17927
16136,-5368,5383
21512,-2296,775
21768,-760,519
23048,264,-760
23047,-504,-761
23047,-2808,263
23048,-3064,263
23048,-2808,-1017
22279,-3576,-1785
22535,-3576,-1529
24327,-2808,-505
25095,-2552,-249
25095,-2296,-1529
23047,-3832,-1529
23303,-5368,-1273
26119,-5368,-1529
28423,-3320,-2041
29447,-2296,-3065
29703,-2808,-3321
28679,-3064,-2553
27911,-2808,-2041
27655,-2808,-1785
29959,-2808,-761
-31225,-504,-761
-30201,1544,-760
-30969,2824,-1784
32263,2824,-2552
32007,2824,-3064
-29689,4872,-3576
-27897,5896,-6648
-26873,6152,-11768
-26361,7688,-14840
-26617,8712,-15352
-26105,9736,-16376
-25849,9736,-17912
-27641,8712,-17912
-28409,8712,-17144
-28409,8968,-16888
-28665,9736,-16376
-28153,10760,-15608
-28921,10504,-14072
-31225,11016,-12536
-31481,12040,-12792
-29433,12296,-14584
-28409,12040,-14328
-28409,13064,-13304
-28921,14600,-13048
-31225,15368,-12280
32263,15368,-10744
30983,14088,-8696
29191,12552,-6904
27399,11784,-5880
25607,11272,-5112
25351,10248,-4344
25351,9736,-3832
23559,9736,-2808
20999,9736,-1784
19719,9480,-1528
20999,9480,-1528
22279,10248,-1272
22279,10248,-1016
22791,10248,-504
23047,10504,-504
22535,8968,-248
21767,8712,-248
22023,8968,-248
22279,9224,-1272
22023,9480,-504
23303,8968,8
23560,8456,264
21512,7688,-248
22535,8200,-760
23303,9480,-248
22535,9480,264
22536,9224,264
22280,7944,264
22280,6152,-760
25607,8200,-1016
27143,9480,-1016
25095,8712,-504
23303,8200,8
23304,7944,264
23304,7432,-248
23303,8200,-504
24327,8200,8
24072,7432,-248
23559,7432,264
21768,7432,520
19976,7176,776
20744,6408,1288
23816,6152,1544
25352,6664,776
24584,7176,264
23048,7432,520
23048,7176,1288
23048,7432,1800
21768,5896,1288
20488,5384,520
20232,5640,776
20488,6664,1544
18952,7176,2824
19208,7176,2824
21000,7432,2312
21256,6664,2312
23304,6664,1800
23560,7176,1544
21512,7176,1544
21256,7176,1800
21256,6920,1800
22536,7432,1544
24328,9480,1288
23304,9480,1544
22024,8456,1288
22280,8712,1544
23560,5640,1544
23560,3336,1800
22792,9992,3080
25352,28936,-1528
-31225,-14072,-12536
-27385,-6904,-16120
-23289,21000,-29687
-27897,27656,30217
23815,29960,-31479
775,23048,-16375
-13561,-3833,264
-21496,26631,15368
-31992,-5369,30471
31240,-28665,-27385
-29688,26119,-25081
-22008,26119,-25337
-10744,-32761,-29945
1800,-19960,27655
11528,-8696,15111
18952,-2808,4615
22792,-1016,1287
22792,-1272,-249
23047,-248,-249
25351,776,1800
25608,-248,1543
25864,8,-504
27143,8,-2040
26631,-1528,-1785
25095,-3320,-761
26375,-2040,-1017
27143,-760,-2041
27143,-760,-1785
25095,-2808,-1273
26119,-3832,-1529
30215,-3576,-1529
-31481,-2552,-2297
-31225,-2552,-4345
31751,-2808,-5113
31751,-2808,-5113
32263,-3064,-5113
32519,-4088,-5113
30727,-4856,-3577
30471,-4600,-2553
-32505,-504,-2041
-30201,2568,-2296
-29689,2824,-2040
-28409,2568,-1784
-28409,2824,-2808
-28665,2568,-3320
-28153,2824,-4600
-27641,4616,-6648
-27129,7176,-10232
-24569,8456,-15096
-23289,8456,-16888
-25849,7688,-16632
-27385,6408,-16632
-27385,7688,-17656
-26873,9224,-17656
-26105,9224,-18424
-26105,8968,-17912
-25849,8968,-17400
-26361,9224,-16888
-29945,9224,-14840
-31993,9224,-14072
-31225,8712,-13816
-30201,9736,-12792
-30457,11272,-12280
-32249,10504,-12280
30727,9480,-11256
30471,9736,-10232
30471,9480,-7672
26375,7944,-4600
22279,5384,-3320
19975,2568,-2296
23047,2568,-2296
25863,5128,-2808
22023,4872,-2040
19463,1032,-1016
19975,-248,-249
19975,1032,776
19720,2312,776
19976,2312,-504
19463,2312,-504
19463,2568,264
19464,2312,776
19208,1544,776
19208,520,-760
19207,8,-1016
20487,264,-760
20231,-248,263
18184,-3320,775
17672,-4344,519
18696,-2040,7
19720,1032,-1528
18439,1800,-2296
17927,8,-760
19207,-1272,-761
20231,-1784,-1017
21255,-2040,-1273
21511,-1784,-1529
19719,-2296,-1785
17927,-4088,-761
17927,-4600,-761
18951,-4088,-1273
18439,-4088,-1017
16647,-4344,-505
16647,-3320,263
16392,-4856,263
15112,-6648,263
10760,-6392,519
7688,-6136,2055
12808,-4600,1799
18696,-3576,-249
18695,-4344,-1785
17927,-4600,-1785
18183,-4600,-761
17159,-4344,-249
14855,-4088,-505
12807,-5112,7
13832,-5368,7
15624,-5112,7
16136,-5112,-249
16135,-4600,-1273
13319,-5624,-1529
11271,-6648,263
11272,-6136,1287
12296,-6136,263
13320,-5880,-1017
12807,-5880,-1017
12807,-5624,-761
12551,-5880,-1273
15879,-3064,-1529
16135,-1784,-1273
17159,-2808,-1273
15879,-3832,-1017
13575,-3832,-1017
13831,-6648,-2041
15367,-8184,-1529
17159,-3832,-505
17927,9224,-3064
24071,30984,-11512
-31481,-15864,-22264
-26361,264,-30711
-27385,13832,28169
24327,22792,27401
-2041,25095,-28663
-18169,12551,-16631
-22777,-21753,-1784
32007,1031,18952
24328,-32505,32007
25352,16647,-29177
28936,12039,-25081
-28920,13575,-26105
-16888,21767,-32505
-5880,-32249,25863
-3320,-29433,24071
9736,-14328,5127
16648,-10744,-1529
17415,-10488,-3577
16135,-10744,-2809
16647,-10744,-1273
16647,-11256,-2041
16391,-11512,-4089
18183,-11512,-4345
17927,-12792,-3577
16391,-13304,-3065
17415,-12280,-3321
20231,-12024,-4345
21767,-11768,-4857
21255,-13304,-4857
20999,-14072,-4857
20999,-13560,-4601
20999,-13560,-5369
22023,-14072,-6649
20999,-15608,-6905
20999,-15096,-6649
23559,-12024,-6649
23559,-11000,-7673
24583,-11000,-7929
25863,-11000,-7929
26119,-11256,-8697
26375,-9976,-8185
22279,-9208,-5369
20999,-8696,-3577
25607,-5880,-4857
27911,-4344,-7929
28423,-3576,-8441
28167,-3064,-7417
27655,-3576,-7673
28679,-2296,-9465
29447,-1016,-13305
29703,-760,-15865
29703,1288,-16120
29191,2824,-16120
27911,3080,-17656
27143,3336,-17912
27143,4872,-16888
26631,5896,-16888
25863,6664,-16632
25607,8200,-14584
25607,8456,-13304
24583,8200,-13048
22791,8456,-12280
20231,6408,-11256
19719,5384,-10232
19975,5640,-9720
20743,6152,-9720
20999,6920,-8696
20999,6920,-7672
18951,6152,-5880
16135,5384,-4856
13575,3336,-4344
9991,1544,-2040
7175,1800,264
7432,1032,264
9992,-248,-1273
11271,-760,-1529
11783,-504,-1529
11527,1032,-1016
11527,2824,-504
11783,2568,-248
13063,2312,-760
13319,2568,-1528
11015,1800,-1784
9991,264,-2040
11271,1288,-1528
13831,3080,-1272
14599,4104,-2040
12807,3848,-2040
12551,3336,-1528
12807,2312,-1272
14599,4360,-1528
14087,4872,-2296
14599,4360,-3064
15111,4616,-3320
15623,4616,-3576
15623,4616,-3320
15111,4360,-3320
15367,4616,-3064
15367,4872,-3064
15111,4872,-3064
16391,6920,-2296
14855,6664,-2296
10247,3848,-1784
9991,3080,-760
11527,3080,-760
12039,3336,-1272
13063,3592,-1528
13831,3336,-1784
14343,3336,-1784
14343,4104,-1272
14343,4616,-760
14087,4616,-760
13063,3848,-760
12295,3336,-504
12551,3592,-760
10247,3592,264
9736,3592,776
9992,3592,776
9992,3592,520
11528,3592,-248
12039,3592,-504
12039,4360,8
12040,4616,520
11528,4616,520
11272,4360,776
10760,4360,776
10504,3848,776
11272,4104,264
9992,5128,1032
7432,5128,2056
7432,4872,2056
9736,4616,1032
11272,5128,8
11528,5128,8
11784,2568,520
13064,-248,519
13832,3592,776
14088,19720,-1272
20231,-22264,-10744
22535,-16120,-15096
-32761,13832,-32759
31751,25864,27913
16135,31240,31753
-10745,25095,-21239
-25593,775,-6135
-28409,-32761,7688
29192,2055,22280
22280,-24313,-32249
23304,24839,-27385
32008,24839,-27129
-23032,31751,-29177
-14328,-25337,29191
-4344,-14073,16391
5384,-5112,5639
8712,-2808,2567
7944,-2552,1799
8200,-2552,263
9992,-4344,7
13576,-3832,7
15112,-2040,7
15624,-1016,-249
16647,-760,-249
16647,-2552,-761
14343,-4088,-761
11783,-3832,-505
12551,-3832,-761
14343,-4088,-761
16391,-4088,-1017
16135,-4600,-1785
16135,-3832,-2041
17671,-3320,-2041
18439,-3576,-2041
19463,-3064,-2297
18951,-3064,-2297
18183,-3832,-1017
18695,-3320,519
18696,-1784,1031
18952,-760,263
21000,264,-1016
23815,2824,-1272
25351,4360,-1528
24071,4360,-2552
23303,4616,-4856
23559,5896,-8440
24071,6152,-11768
25607,7432,-13560
26631,8456,-14584
26631,8200,-15864
26119,8456,-15864
26119,8200,-15608
26119,7944,-15608
25863,8456,-15608
25095,9224,-13816
25095,9480,-12536
23815,9224,-12024
22535,8456,-11768
22535,9992,-11512
22535,12040,-11000
21767,12808,-9976
20743,12808,-9208
19463,12296,-9464
19463,11784,-9464
19975,12040,-8184
18695,12296,-5624
16135,11784,-3064
12295,10504,-2040
9735,8712,-1784
10247,8968,-1784
11271,9480,-504
10247,9224,520
8968,9224,1032
7176,9224,1032
6152,9224,1544
6152,8712,1800
6408,7688,1544
9736,7688,520
11272,9736,520
8968,9736,1544
8456,8712,2312
8968,7688,2312
8968,6920,1544
8200,6664,1288
7176,7176,2056
7432,7176,2312
7688,6920,2056
8200,7176,2056
9736,7432,2056
9480,7688,1544
9992,7944,776
11784,8712,776
12040,8200,776
11016,7432,1032
10504,7688,1032
10248,6920,1032
10504,6664,776
11016,7432,1032
9992,7688,776
8456,7176,1800
9480,7176,2568
9480,6152,2056
7688,5640,2056
7432,6408,2312
7432,6408,2312
7432,5640,2312
7432,4616,2568
7432,5128,2824
7432,6664,2824
6920,6920,2824
6664,5384,2824
7944,4872,2824
7944,5384,2824
5896,5640,2824
5640,5896,3336
6408,5896,4104
6152,5384,3848
5640,5384,3592
5128,5384,3592
4104,5384,4104
4104,5128,4104
4104,4616,3592
5896,5384,3336
7176,6664,3336
5384,6664,3336
5128,7176,3336
4872,6664,3592
7176,6408,3336
8200,7432,2568
8456,6152,2824
6920,1288,3080
4616,-504,4359
4872,8456,3592
11016,31240,-2296
20999,-8696,-12792
25607,9736,-23543
25863,21256,-31223
22023,27656,30985
2311,28424,-27639
-23801,16647,-10743
29959,-12281,4872
25352,19463,19464
16648,-11257,-32505
13832,31751,-25337
19976,25095,-22521
30984,28679,-23289
-25080,-30457,-29689
-14840,-19449,25351
-4856,-8185,12807
776,-2808,5895
4616,-1784,3847
4616,-1016,2311
4616,-1528,2311
4616,-2808,3335
6664,-3832,3079
8712,-3064,1799
10248,-2552,775
9992,-2552,1031
10504,-3064,1031
10760,-3576,263
10248,-3576,519
10248,-3576,775
9992,-3576,1287
9992,-3576,1287
9992,-5112,519
10504,-5624,-249
14343,-2808,7
14856,-1528,263
13064,-2808,1543
11784,-3576,3335
11016,-3064,3847
13832,-1016,3335
14856,1544,2824
13576,1800,2568
15880,1032,520
17928,1288,8
19208,2568,-248
20487,4360,-5368
20999,4616,-9976
21511,4872,-12024
23047,6664,-12536
23047,7944,-13560
21767,7432,-14840
19207,6408,-14584
18951,5640,-14584
22535,7176,-14584
23559,8968,-12792
20999,9224,-12024
19463,8968,-11000
19463,8968,-9976
19719,9224,-10232
18695,9992,-10744
15367,10504,-9976
15879,10760,-9720
18183,12040,-9208
17927,13320,-8696
16647,13576,-8184
13575,12808,-6136
10759,11528,-3320
10247,11016,-2040
9991,10248,-2040
8967,9736,-2040
5127,8968,-504
3847,8968,264
5128,8712,264
6408,8968,264
5384,8712,1288
4616,8712,1800
4616,9480,1800
3848,8712,1800
2312,6664,2056
2568,6664,2568
3592,7432,3080
4104,7688,3080
4360,7688,3080
4872,8456,3336
5128,8456,2824
3336,7176,3080
2312,6408,3848
3848,6408,3336
5384,6664,2824
5896,6664,2312
6152,6664,2056
6152,6920,2056
6152,6920,1800
5128,6664,2312
4872,6664,2568
5128,5640,2568
5384,5384,2568
3592,5384,3080
2568,4360,3080
2824,4104,2824
3080,3848,2824
4104,4104,2824
5384,5128,2824
3848,5128,3592
3080,4872,3848
3080,4104,3848
2568,3592,4104
2824,4104,3848
2824,4616,3848
2312,4616,4360
2568,3848,4360
1288,2824,4104
-1784,3079,4872
-2296,2823,5384
520,3336,5128
3336,4104,4616
3336,4360,3592
776,3592,3592
8,2568,4360
-248,2823,4872
520,3848,4872
2056,4616,4616
2568,5128,4360
264,4616,4872
-248,4615,4616
1288,4872,4360
1544,4872,3848
1544,4616,3336
1544,4616,3080
1800,4360,3592
1800,4104,4104
2056,776,4616
2824,520,4872
5640,11528,3848
7432,-31480,-2808
13319,-8184,-13048
20231,9224,-23031
22279,21000,-30711
14343,26888,-32503
-8697,26375,-23031
-31225,9223,-6647
26119,-23033,8456
16904,8967,24072
7944,-18937,-28665
7176,-27129,-25849
18184,22023,-21753
27144,25607,-24057
-27896,-31225,-30713
-16376,-19193,24071
-6392,-9721,12039
-3576,-4857,6663
-2296,-2809,5127
2056,-2296,2823
4104,-3320,2567
4104,-6136,3591
4104,-6904,2567
5128,-5112,2055
6152,-4088,1799
6408,-4856,2055
6152,-5368,2311
3336,-5368,2823
2312,-5880,2823
4360,-6904,1799
6152,-6904,1031
7688,-6904,775
8456,-6904,263
8968,-6392,-249
8967,-6136,-249
8455,-7160,-249
8455,-7160,-249
8455,-7416,-249
8711,-7672,519
9992,-6392,2055
11016,-4856,2823
12296,-2296,2311
13320,-504,1543
13832,8,1032
14600,264,520
15624,1288,-760
15879,1032,-3320
15879,2056,-6904
15879,2568,-10232
15879,2824,-13048
16647,4616,-13560
18951,6920,-13304
19719,6152,-14328
18951,5640,-14840
18439,5896,-14840
17159,5128,-14840
16391,4360,-14072
17927,5640,-13304
17415,6664,-12024
15367,6664,-10744
15111,6920,-10744
15367,7176,-11000
13575,6920,-10488
14087,8456,-9464
12039,8968,-7928
10247,8712,-7928
8199,7432,-6136
4615,4360,-3064
3847,2824,-1016
3847,2824,-248
3079,1032,8
1800,-760,775
-1528,-505,2055
-3320,519,2568
-3576,519,3080
-3320,-1273,3079
520,-760,2311
1544,-248,2311
776,-1016,1543
776,-1528,1799
-1784,-3833,3335
-3832,-4345,3847
-2296,-2809,4103
-2040,-3321,4103
-248,-4601,4103
-504,-4345,3847
8,-3064,2823
264,-1784,1031
520,-2296,2055
-1784,-4857,3591
-2040,-5625,3591
-2040,-4857,2311
-2040,-3577,1543
-1784,-4089,1543
-1016,-4345,1799
264,-4344,2055
-248,-6393,1799
-1272,-6905,1799
-3320,-7161,1799
-3320,-6393,2055
264,-4344,2311
8,-4856,1287
-4856,-7929,1799
-6648,-8441,2311
-4856,-7929,2311
-2040,-7673,2055
-2552,-8441,2311
-6904,-11001,3335
-7416,-11001,4103
-5368,-8697,3079
-4344,-7929,1543
-4344,-7673,1031
-6392,-11257,2311
-7672,-11513,3079
-8440,-10233,4103
-10232,-11001,3335
-9208,-9977,2823
-6904,-9209,3847
-7928,-11769,3079
-6904,-11257,2311
-5112,-10233,2055
-5112,-10489,1543
-4600,-9465,1799
-5880,-9721,2311
-9976,-12025,2055
-10488,-12793,2055
-8440,-12025,2055
-7928,-10489,1799
-8440,-10233,1543
-8952,-11001,775
-8952,-11513,775
-9720,-11513,1287
-10232,-12537,1287
-9464,-15353,1287
-8696,-17657,1031
-8696,-9977,1031
-9208,-4345,1031
776,30216,-13816
8711,-19192,-25336
14343,-4088,-32760
11527,8456,29705
-14585,14087,-30967
25351,7431,-19959
21255,-16377,-8440
15879,9991,9736
2568,-28665,28679
-504,12806,-30713
2312,2311,-26617
9224,1799,-23801
18184,7431,-28153
26632,16135,30215
-28408,27655,19463
-16120,-28153,6919
-11512,-24569,519
-11768,-22777,-1785
-11001,-22009,-2553
-10233,-23801,-1785
-11513,-24569,-1017
-11257,-24313,-2041
-11257,-24313,-3577
-9721,-25081,-3577
-8185,-25081,-2809
-9721,-27641,-3065
-9977,-27385,-3577
-7673,-26873,-3577
-5625,-27129,-3577
-5113,-26105,-3833
-6393,-25849,-4345
-6393,-26873,-5625
-4345,-26873,-6137
-4089,-27129,-5881
-3833,-27385,-5625
-4089,-27129,-6905
-3577,-27129,-7929
-1529,-26105,-8185
-1017,-25081,-8185
-3321,-24825,-7417
-3321,-24569,-6137
-1529,-23545,-5881
7,-21496,-5625
519,-19448,-5881
519,-18936,-6649
519,-18168,-7417
7,-17912,-7673
-1017,-18937,-7673
-1273,-19193,-9721
7,-18936,-11257
3591,-14328,-16889
2567,-12792,-17657
1799,-12536,-17657
1031,-12792,-17657
-505,-12025,-17913
-761,-9977,-18169
-761,-8697,-17913
-761,-8441,-17401
-1017,-8441,-16889
-3065,-8441,-15865
-3833,-8441,-14585
-4345,-8441,-12281
-7929,-9209,-11001
-9209,-9721,-10745
-7417,-9721,-10489
-6905,-9977,-10233
-6905,-10489,-10233
-7929,-10233,-9977
-10489,-10745,-7417
-13561,-13561,-4345
-14329,-15097,-3833
-14073,-14073,-3321
-16889,-14073,-2297
-18937,-15353,-1017
-18681,-15353,-1017
-17913,-15865,-1273
-17145,-16121,-1017
-16633,-14841,-761
-16889,-14073,-761
-16377,-14073,-1529
-16121,-13817,-1785
-16121,-13817,-1529
-15865,-14073,-1529
-15609,-14073,-1273
-15353,-14329,-1785
-14841,-14073,-2553
-14841,-13561,-2553
-15097,-13561,-2553
-13561,-12281,-3065
-13561,-11513,-3065
-16633,-12537,-3065
-15865,-11513,-2809
-12537,-11001,-2553
-11769,-11513,-3321
-10489,-11769,-4089
-10489,-11001,-4089
-11513,-10745,-3833
-11513,-10489,-3833
-11769,-11257,-4089
-12281,-11769,-3833
-13049,-11769,-3321
-13049,-11001,-3321
-13305,-11001,-3577
-13049,-11513,-3321
-13561,-12281,-2553
-15097,-12281,-1785
-15353,-12281,-2041
-13817,-12281,-2041
-12793,-12025,-2041
-12793,-11769,-2041
-13561,-12025,-2297
-14841,-12025,-1529
-14841,-12281,-1273
-13561,-12025,-1529
-15353,-12025,-1273
-17145,-12025,-761
-17145,-12025,7
-15864,-12537,-1273
-13049,-11513,-1529
-11513,-9977,-1273
-14073,-10745,-761
-16121,-11513,263
-14584,-11257,263
-13304,-11513,-761
-12793,-10745,-761
-13049,-10233,-761
-13817,-10489,-505
-14073,-10745,263
-14840,-10745,7
-16376,-10489,7
-17144,-10489,519
-15352,-10233,519
-14328,-9721,519
-14328,-8953,263
-13304,-10489,7
-13304,-14585,263
-13560,-14329,1287
-12536,-3065,-505
-8697,17927,-7672
519,-25592,-18680
8199,-7416,-29432
8967,6664,28681
4359,15880,27401
-18169,15367,-28663
22023,-505,-13560
13575,-30713,264
8200,2311,14600
-504,-27130,28679
-1784,17414,-28665
-760,12294,-26873
11272,12807,-28409
22280,19719,32263
-31736,30471,22279
-21240,-24313,9735
-14328,-18169,2823
-11000,-16377,1031
-10488,-16121,-249
-10489,-16121,7
-10232,-16377,7
-9464,-16633,7
-8440,-16633,-761
-8185,-17913,-1785
-8697,-17913,-1529
-8441,-17657,-1017
-8441,-17657,-1273
-8697,-16889,-1017
-8953,-17145,-1273
-8953,-18169,-1017
-7161,-18681,-1017
-4601,-18425,-2041
-2553,-18425,-3065
-2553,-18425,-3577
-2041,-18169,-3833
-505,-17657,-3833
263,-16632,-4089
-1785,-16633,-4345
-1529,-16633,-3577
-1529,-16889,-2297
-1017,-16121,-1273
-505,-14329,-1017
-505,-13305,-1273
263,-12536,-2041
4359,-8440,-2297
7431,-5624,-3065
6919,-6904,-4601
4871,-8440,-5625
3847,-8440,-8953
3847,-6904,-13049
6407,-4088,-14585
6919,-3832,-14841
4103,-4344,-14585
3591,-4344,-14585
5127,-3320,-15097
5383,-1784,-15097
4359,-1784,-15097
3335,-2296,-14585
4359,-1272,-13049
4615,-504,-12025
4359,-760,-12281
4359,-248,-12281
1287,-760,-10233
-1785,-1017,-8953
-1529,-1017,-8697
1031,264,-8696
1287,1544,-7416
-1529,775,-6136
-4089,-2297,-4857
-5113,-4345,-3321
-5881,-3833,-2297
-5881,-2041,-1017
-7673,-3321,-505
-9209,-5113,7
-9208,-5113,519
-8952,-4089,519
-8952,-3065,519
-8952,-3321,775
-9464,-4345,1031
-11512,-5113,2055
-11512,-4857,2567
-9720,-4857,2055
-8696,-4857,1287
-8696,-4601,1543
-8696,-4601,1799
-8952,-4857,2055
-8440,-5113,1799
-6136,-4857,1031
-7416,-4857,1031
-7928,-4857,1287
-8184,-5113,1031
-7160,-4857,775
-2808,-2553,775
-2040,-2297,519
-5112,-4601,263
-6136,-5113,263
-6392,-5113,519
-6648,-4857,775
-6392,-4857,1287
-6136,-5369,1287
-6392,-5881,1287
-6392,-5625,1799
-7160,-5113,2311
-6904,-4857,2311
-6904,-6137,2055
-6904,-6649,1543
-7416,-6649,1799
-8440,-4345,3335
-8440,-3065,3847
-8440,-5369,3335
-7672,-6649,3335
-6648,-6649,3079
-6648,-5625,3079
-7160,-5369,3591
-8952,-5625,4103
-10232,-5369,4359
-9976,-5113,4359
-7928,-5113,4359
-5368,-4601,3591
-4600,-4601,2567
-4856,-4601,2567
-5880,-4345,3335
-7160,-4345,3847
-6648,-4601,4103
-5880,-4345,3079
-5880,-3833,3079
-6648,-3321,3591
-7416,-3833,3591
-7416,-3833,3335
-5880,-2809,3591
-5112,-2041,3591
-6392,-2041,3335
-6392,-2553,3591
-4344,-5881,3335
-3320,-8953,3079
-3320,-3577,2823
-3576,7,2824
4872,-28664,-7160
12807,-7672,-18424
17159,8712,-28663
15623,18696,30729
1287,22280,-31991
-26361,15879,-17143
22535,-6905,-1784
19719,26375,11272
11016,-5369,26887
5384,-32761,-27385
10248,18439,-23545
18184,17415,-24825
27144,22023,-28665
-28664,31751,31239
-19192,-22009,19207
-11000,-12793,7431
-5368,-9465,5127
-2552,-8953,4359
-504,-8953,2567
1032,-9208,1287
520,-9720,1799
-1528,-10233,2567
-2296,-10489,2823
-1528,-10745,2567
-504,-10745,2055
1544,-10744,1031
2568,-10744,775
2312,-10744,519
2312,-11000,775
2824,-10744,775
3080,-11512,775
3848,-11512,519
5384,-11512,7
5640,-11000,7
5640,-10744,1031
5640,-11000,2311
6920,-10488,2567
8456,-8696,2567
7944,-7160,2567
7688,-6648,2311
9224,-5624,1799
9224,-3064,1799
8200,-3064,519
9224,-4856,-3065
12039,-4856,-7929
14855,-3576,-12281
17159,-760,-13305
17159,1544,-13304
15623,1032,-13304
15623,264,-13560
15879,520,-13816
15623,1032,-13816
15111,1032,-13304
14087,-504,-12025
13063,-1016,-11257
12807,-504,-11001
13575,1544,-10232
13575,3336,-9464
13319,3336,-9208
12551,3336,-9208
10759,4616,-9208
10759,6664,-8184
11527,7432,-7416
10759,6408,-6392
7943,4360,-5880
4615,4360,-3832
3079,4104,-1016
2567,3336,264
1032,2568,264
264,2568,264
-248,1799,520
-504,1543,1288
8,1800,1032
-1016,1543,1288
-1528,1287,1544
264,1800,1800
-760,1543,2056
-504,1543,2568
-1272,1543,2312
-2552,1287,3336
-504,1543,3848
1032,1032,3336
1032,1032,3080
1032,520,2568
-504,-249,2567
-1272,7,3080
-248,7,3080
776,8,3080
2056,-248,3079
1544,-248,2823
1800,520,2056
2056,1032,2056
1032,264,2568
776,8,3080
-248,-1273,2823
-504,-1785,2823
1800,-1016,3079
2568,-760,2567
1544,-504,2567
264,-760,3591
520,-1016,3847
776,-760,3847
1032,-760,3847
264,-760,4103
-1016,-1529,4359
-1528,-1785,4103
-1272,-1529,4103
-1016,-1529,3847
-504,-1273,4103
-248,-1529,4103
264,-1528,4103
2312,264,4360
264,-248,4871
-2040,-2297,4871
-1784,-3321,4615
-2040,-3321,4103
-1016,-761,4103
-760,263,4360
-1528,-249,4615
-1528,-1017,4359
-2552,-2297,4359
-760,-761,4359
2824,1288,4104
1544,776,4360
264,264,4616
264,776,4616
8,264,4104
1544,520,3080
520,1288,3336
-504,-761,4359
1032,-3576,4615
2824,-3832,4871
3848,7944,2824
8200,30472,-3576
15111,-12024,-13816
20231,5640,-24311
21511,18440,-31735
13831,24840,-32759
-9721,23815,-22775
-32249,6407,-6647
26375,-24313,7688
18696,8455,23560
9480,-21497,-28153
9736,23815,-23545
16136,17671,-22521
25352,21511,-24313
-30968,29703,-29433
-21496,-25081,25095
-8952,-15097,10759
-4856,-13049,7943
2056,-6904,4359
2824,-6648,2311
3592,-6904,2055
4360,-7416,2823
4872,-7672,3079
4872,-7672,2311
4616,-7928,1287
5896,-7928,1543
5640,-8184,1799
4872,-8696,1543
5128,-9464,1543
5128,-10232,1287
6152,-10232,1031
7688,-9208,1287
7688,-8696,1287
7432,-8696,519
7688,-9208,-249
9479,-9464,-761
12295,-8696,-505
11527,-8440,1287
8456,-8440,2823
8456,-8696,3079
12040,-6648,2567
15624,-2808,2567
15368,-1784,2823
13064,-1528,1287
13576,-2552,-249
14855,-3832,-3321
17159,-1784,-6905
18695,264,-10232
18951,1288,-11768
19207,2312,-12792
19463,2568,-13560
18951,2568,-13304
18695,2568,-13304
18183,2568,-14072
16647,3592,-13560
15879,3592,-12024
16903,3592,-10488
16903,3080,-10488
15623,3080,-11512
15623,5640,-11256
15367,6408,-9976
15367,6408,-9464
15623,7688,-9464
14855,7688,-9464
12807,7688,-8440
12551,7688,-6648
11527,7432,-4088
9735,6408,-4088
3847,4872,-1528
3847,5128,-248
4359,4360,520
4104,3592,776
3592,3336,776
2312,3080,1288
1800,3080,2312
2312,3336,2056
2312,3336,1800
1288,3336,2312
520,2568,3080
8,2056,3336
264,2056,3080
2824,2312,2824
4360,2056,2824
3336,2312,2824
2312,1800,2568
1288,1032,3336
2312,1544,3848
3080,3080,3848
3336,2824,3080
3848,2312,2568
3592,1544,2824
3592,776,2312
3848,776,1800
4360,2056,1544
4104,1288,1800
4872,776,2056
5384,776,2568
4872,1288,2824
3592,1288,2824
3592,1032,2824
3848,264,2824
3848,8,2568
3848,8,2568
3080,520,3336
2568,776,4360
2824,8,4360
2568,-504,3847
1544,-760,4103
1544,-504,4103
1032,-504,4359
-1016,-1017,4615
-504,-1017,4871
3336,1288,4872
5384,2568,4872
4616,1288,4872
2824,8,4872
776,8,4616
520,8,4872
-1016,263,5640
-1016,-761,5127
-248,-1529,4615
2568,-248,3847
5384,1800,3848
3592,1544,3848
520,1032,4872
520,1288,5128
1544,1288,4616
1800,1032,3592
1544,2312,3848
2312,2568,4104
2824,2312,4360
3080,2056,4360
2824,-1016,3335
2824,-4344,3335
3336,-1528,4615
5640,13064,3080
11784,-28408,-4600
17671,-6904,-15608
21511,9480,-25079
23303,20744,-31991
13063,25864,-32247
-12793,21511,-20727
-21497,17415,-15607
25095,-31737,11272
17416,2311,26376
11016,-24569,-29177
13320,24327,-24313
21768,20743,-22521
31752,24583,-25081
-23544,-32505,-32249
-13816,-19961,22023
-3832,-10233,10247
1544,-6648,5639
1800,-6904,4103
1800,-6136,2823
3336,-6648,2823
4104,-8440,3335
5128,-8440,3079
6408,-7928,1543
7432,-7160,1287
9480,-6648,1799
8456,-7160,1799
6408,-7928,1543
6152,-8184,1799
4872,-8440,2055
5128,-8440,2055
8200,-8440,1543
8456,-9208,775
9992,-9720,-505
11527,-9464,-761
11271,-8952,-505
9479,-8184,775
9736,-8184,2055
12040,-7416,2823
13320,-6648,3335
13576,-4600,3335
13832,-3320,2823
14600,-2808,1543
15880,-2808,519
17416,-1784,263
17160,-1016,-2297
17415,-1016,-7161
18439,520,-10488
18183,2312,-11256
17415,2312,-11512
16903,2568,-12536
17159,2312,-13304
17927,2312,-13048
18183,2824,-13304
17159,2824,-12792
16391,3080,-11512
17415,3080,-11000
18439,3080,-11000
19719,4872,-11256
17671,4872,-11256
14343,5640,-9208
14087,7176,-7928
15879,7688,-9208
15623,7944,-9464
15111,7944,-9208
13063,7432,-6648
11015,7176,-3832
10247,7176,-2552
8455,6664,-2040
5127,4872,-248
4103,3848,520
3848,2824,520
3848,2824,520
3848,3592,1032
3592,4104,1800
3592,3848,2312
2568,3080,2568
1800,2568,2824
1800,2568,2824
2312,2568,2568
2056,2056,3080
1544,1544,3592
520,1288,3848
2568,1544,3336
3336,1544,2824
3336,1288,2824
3080,1288,3080
2568,1288,3080
1032,1288,3080
520,1032,3336
2312,1032,3080
3592,520,1800
6408,1032,776
9224,2312,1032
8456,2568,1288
5640,2056,1544
4616,776,1544
4872,-248,1287
4872,-504,2311
3592,-504,3079
3848,-504,2823
4616,264,2568
4616,520,2568
3592,520,3336
3080,-248,4103
3080,-1016,3591
3592,-1272,3079
3336,-1784,2567
3848,-1272,3335
3592,-1272,3591
2824,-1016,3335
2824,-1272,3591
2568,-2296,3847
2824,-2552,4615
2824,-2296,4615
2568,-2552,4359
1032,-3576,4615
-1272,-5625,4615
-1784,-4345,5127
-2296,-2041,7175
-1528,-2297,6407
1544,-3576,4615
1544,-4088,3847
520,-4088,3847
520,-3064,5383
-1016,-3321,6663
-1016,-4857,4871
2568,-4088,3335
4872,-2296,3079
4104,-2552,3079
8,-3576,4103
1288,-4600,3847
3080,-5368,3847
3592,-8952,5639
2568,-1784,5895
5640,16136,8
13832,-27640,-11000
23303,-7672,-21240
24583,5384,-28663
19719,11528,31753
-761,13319,-26871
-28409,5639,-10487
26887,-22009,3848
20232,7943,19464
9736,-25849,-32249
7176,16647,-24313
8712,6663,-20217
17416,7943,-20985
31752,16903,-26361
-24056,28167,29703
-13560,-25849,17671
-5880,-18937,8455
-3064,-18937,4103
776,-16632,2055
3336,-14072,1543
1800,-17400,1543
1800,-17912,1287
2568,-17144,519
2568,-17656,7
1800,-18168,519
3336,-18680,519
3336,-20216,263
5384,-19960,-1017
6151,-18936,-1273
2823,-19704,7
4104,-19960,-505
7431,-19192,-1529
8199,-18936,-2809
7943,-20216,-3577
6407,-21240,-3065
6663,-22008,-2553
6919,-21752,-2553
7943,-20984,-4345
10503,-20472,-5625
10503,-20472,-5369
9479,-20472,-3833
9223,-19704,-1529
9991,-18168,-505
11527,-16888,-2297
12295,-15608,-2553
12039,-15096,-2297
12039,-14840,-2809
11783,-14840,-2553
12807,-12536,-6393
13831,-11768,-10745
13575,-11768,-14073
12551,-12024,-16377
12295,-10744,-17145
12807,-9720,-17401
13063,-9720,-17145
14343,-9208,-16889
14599,-9208,-16633
12551,-7928,-16633
11783,-4856,-16633
10759,-4856,-16377
9991,-6648,-14585
9223,-6648,-12537
8199,-7672,-12025
7175,-8696,-12025
5639,-9208,-11257
5127,-10232,-9721
4615,-10232,-9721
3847,-9464,-9721
4871,-9720,-7417
1543,-12536,-4601
-4345,-16377,-3065
-6393,-17913,-2041
-6393,-18169,-1529
-8441,-18937,519
-8184,-19193,1031
-8184,-18937,1031
-9720,-20217,775
-11000,-20473,1031
-11512,-20985,1287
-11512,-22265,1799
-11768,-22777,1799
-11768,-23801,1543
-12024,-24569,1543
-12536,-23801,1799
-12280,-22521,1287
-9976,-21497,263
-7160,-21753,-249
-5881,-22265,-505
-6649,-23289,-505
-8185,-23545,-761
-8185,-23545,-1017
-8441,-24569,-1273
-8185,-25337,-1785
-7929,-24313,-1785
-8697,-24569,-1785
-9721,-25081,-1529
-11257,-25593,-1017
-12281,-26361,-1017
-12793,-27129,-1273
-12281,-26617,-1017
-12537,-27385,-1017
-13561,-27385,-1017
-13561,-27129,-761
-12793,-27129,-761
-11769,-25849,-761
-11513,-25081,-1017
-12793,-25593,-1529
-15353,-26617,-1273
-16377,-26873,-761
-15609,-26617,-249
-14073,-26361,7
-13816,-26105,-505
-14073,-25593,-1273
-13561,-25337,-1017
-13305,-26105,-761
-12793,-26361,-761
-12025,-26105,-1273
-11769,-24313,-1529
-12281,-24057,-2041
-13049,-24057,-2297
-12281,-23801,-2041
-12025,-23545,-2041
-12025,-23033,-2553
-11769,-21753,-1785
-11769,-22009,-2041
-11513,-22009,-1785
-11769,-22265,-2041
-13817,-23545,-3065
-13817,-23801,-2553
-12025,-22009,-1785
-11769,-21241,-1273
-12793,-21497,-1273
-15865,-24057,-2553
-16377,-24569,-2809
-14073,-20985,-1529
-13305,-20729,-1529
-13049,-24569,-2041
-10489,-25081,-2041
-8953,-18937,-2809
-9465,-1529,-6137
-4601,18951,-13304
4103,-30200,-23800
9479,-12792,32008
9479,1544,25097
-7929,8967,27401
29447,6663,-25591
18951,-14585,-13816
18951,-23545,-10232
1543,-24825,23559
-4344,10758,-30201
-504,-3322,-27642
5640,-6137,-26362
15368,-1273,-29178
24840,6663,30727
-30968,17415,22279
-21496,29191,9991
-14328,-30457,519
-12024,-29177,-2041
-12537,-30201,-2809
-12281,-30969,-3065
-10233,-30713,-2553
-9977,-30713,-2553
-8953,-28665,-2809
-6905,-27641,-2809
-7673,-28921,-3065
-8953,-29433,-2553
-8441,-29689,-2809
-5881,-29433,-4345
-3833,-29177,-5369
-3577,-30457,-4857
-4089,-30713,-4601
-4345,-29945,-4857
-3577,-29689,-4857
-3321,-30457,-4857
-3833,-30969,-5369
-3577,-31225,-5881
-1785,-29945,-6393
-249,-28921,-7161
775,-29176,-7673
263,-29176,-8185
7,-29176,-8953
519,-27896,-8953
263,-25848,-8953
1543,-24824,-8953
3079,-25080,-8953
2823,-25080,-7929
2055,-24824,-6905
1799,-24312,-5881
2055,-22520,-4601
3335,-19704,-4089
5383,-16376,-4089
5895,-14840,-4089
5127,-15096,-4601
3847,-15608,-6137
3847,-14840,-9977
4359,-13048,-13305
4103,-10488,-14585
3335,-9976,-14841
2055,-8184,-15609
3079,-7160,-16889
4871,-5368,-17401
5127,-4344,-16633
3847,-4344,-15865
2823,-4856,-14073
1799,-5368,-12025
775,-6648,-11257
-761,-7929,-10489
-3321,-9465,-8953
-4601,-10489,-6905
-4857,-11257,-6393
-4345,-12025,-6393
-3833,-12537,-5881
-4089,-12793,-4857
-4601,-12793,-3577
-7161,-15097,-2041
-8697,-17145,-1529
-8697,-17145,-249
-9209,-16121,1287
-9464,-16121,1287
-11512,-17145,1287
-13560,-18425,1543
-12792,-18425,775
-12024,-16889,519
-9464,-15097,519
-6648,-15097,-761
-5369,-15353,-1529
-4089,-13817,-1273
-3321,-12281,-1529
-3577,-12281,-1529
-3577,-13049,-2041
-3833,-13305,-2297
-3577,-12281,-2297
-4089,-11513,-2553
-5369,-12281,-2041
-5625,-13049,-1785
-4857,-13049,-1785
-4857,-12793,-2297
-4857,-13049,-2297
-4345,-14073,-2553
-5113,-14841,-2809
-7161,-13561,-1529
-8697,-11769,-249
-8953,-12793,-249
-5625,-14329,-1273
-2041,-14329,-2297
-2553,-13817,-1785
-4601,-13561,-1017
-4601,-13561,-249
-3833,-13817,7
-3576,-13817,-249
-4345,-13817,-249
-6137,-13561,-249
-6905,-13561,519
-6648,-13561,519
-5624,-14329,775
-5880,-14329,519
-6392,-13305,1031
-6392,-12793,2055
-5624,-13049,2311
-4600,-12793,1287
-3832,-13049,519
-4600,-12537,519
-5880,-12025,2055
-6904,-12281,2567
-6904,-13049,1799
-6904,-14329,1031
-7160,-14329,1031
-6904,-12281,2311
-5368,-11001,2567
-3832,-11257,2567
-3832,-11257,2567
-3832,-10745,1799
-3320,-11001,1543
-3576,-12025,1799
-5112,-11513,1799
-7672,-11257,2311
-7160,-11001,2567
-4088,-11257,2311
-4088,-11257,2311
-5112,-10489,1799
-3064,-11513,775
264,-14328,775
2824,-14328,1031
2312,-6392,1031
2312,13832,-4600
9735,-27640,-15352
19463,-8184,-26104
20999,5640,31241
14599,13576,27913
-7161,14855,-30455
-30969,4615,-16631
25863,-23545,-3064
19463,8967,11016
9224,-22009,25863
8968,20231,-29945
16136,10503,-26105
21768,10759,-26873
22792,12807,-28153
-26104,27143,25863
-13048,-27129,13319
-5368,-20729,5127
-4344,-18681,2823
-2296,-17401,1287
776,-17144,775
1032,-18168,1799
-1528,-18425,1799
-1528,-18425,1287
2312,-18936,263
3592,-19704,7
2312,-20216,7
2312,-19704,263
3336,-18936,-249
4871,-18936,-761
4615,-19448,-761
3335,-19960,-1017
4103,-19448,-1273
6407,-17912,-1017
8199,-18168,-1017
7687,-18936,-761
5895,-19192,7
5896,-18680,1031
9480,-15096,2311
10760,-13304,2567
10760,-13304,775
11016,-13560,263
11784,-13048,-761
12295,-13048,-2553
12039,-12280,-5625
13319,-11512,-9465
15623,-9976,-12537
16391,-8696,-13817
16647,-7416,-14329
16647,-7672,-15097
13575,-7672,-14585
11271,-7672,-13817
13575,-7672,-13817
16647,-7672,-13561
16903,-7672,-13561
14599,-7672,-12793
12551,-8184,-11257
12551,-8952,-11001
12551,-8952,-10745
13063,-6904,-10745
15111,-3576,-9721
15367,-2552,-9209
14599,-2808,-8953
14599,-2552,-9721
14087,-2040,-9977
10503,-2040,-6905
8455,-2808,-5113
6407,-4856,-4345
4103,-4856,-3321
3079,-4600,-2297
2055,-4088,-1017
2055,-4344,-1017
2055,-4344,-761
2055,-3832,-505
1287,-3576,-249
1543,-3576,7
776,-4600,1031
-760,-5113,2055
-1784,-4857,2311
-1016,-4857,2311
-504,-5113,2055
-248,-6649,1799
520,-7160,1543
-504,-7161,1799
-2040,-6649,2311
-504,-5625,2567
1800,-5880,2567
3848,-5624,1799
3080,-5880,1287
1800,-5624,1031
1288,-7928,1031
1800,-7672,1031
1032,-6136,1287
1544,-5112,1287
1800,-5880,1287
2568,-6648,1031
2824,-6392,1031
1800,-6648,1031
1288,-6136,1031
776,-5624,1287
1544,-5368,1543
4360,-5624,1543
4360,-6904,1543
4360,-7416,1287
4104,-6904,1287
2056,-6904,1543
2312,-6648,1543
2824,-6392,1543
1800,-6392,2311
1032,-6648,2311
1032,-7672,2311
1288,-8184,2055
1032,-7672,2055
1288,-6648,2311
1032,-6392,2823
264,-7672,3079
776,-6904,2823
1032,-6392,3079
776,-6136,3335
-504,-5881,3847
-2808,-6393,4359
-2552,-6649,4103
-248,-6137,3335
2312,-5112,3079
5384,-4600,2311
4872,-4600,2055
2312,-5112,2055
1544,-5880,2311
8,-6136,3079
-1272,-6137,3591
-1272,-4345,3847
-248,-5625,3847
3336,-9464,3079
5384,-9464,2823
5640,1544,1032
9480,24840,-5368
16903,-17656,-14840
23047,-504,-25080
23303,11528,32009
23303,16392,30217
-5113,16647,-25847
-28153,1543,-9207
27911,-28921,5896
19720,3847,22024
12552,-25849,-29689
13064,19207,-24057
17928,11783,-23033
26888,15623,-25593
-27128,24071,-31481
-15096,-29433,24071
-5624,-18425,11271
-1272,-13561,4871
1288,-11512,4103
4104,-11256,3079
4360,-12792,2311
3080,-14840,2055
3080,-14840,2055
4104,-14072,1799
4104,-14072,775
4872,-14328,775
5128,-16376,775
5128,-15864,1287
6152,-12280,2311
7688,-12280,1031
9480,-13560,519
13064,-14840,-1017
12807,-14072,-1017
12295,-13816,-761
12807,-13048,-1017
12551,-13304,519
12040,-13816,2823
12040,-13048,3335
12552,-11256,3335
14600,-9464,3079
16136,-8440,2823
15880,-8440,2311
15112,-7928,263
15880,-8184,-1785
17415,-7928,-4601
19463,-6392,-8953
20231,-5112,-12281
20487,-4344,-13305
20231,-4344,-13561
19975,-4088,-14073
19975,-3576,-13817
20231,-2296,-13817
19975,-2296,-13817
19975,-3064,-12537
18951,-3832,-11769
18695,-3832,-11513
16647,-3064,-10745
14087,-3320,-9977
14343,-2808,-9465
12807,-2552,-9465
12551,-1016,-9209
15879,2568,-8952
16647,3592,-8696
16391,2824,-8440
16391,2568,-7160
13063,776,-5624
9991,8,-3832
9735,-248,-2809
11015,264,-3064
8711,264,-2296
3847,-248,-505
2055,-1528,7
3080,-2296,-249
4871,-2296,-249
5639,-1272,-249
4359,-1016,263
2824,-2296,775
3080,-2296,1031
3336,-1272,2055
3592,-1272,2567
3848,-1016,2567
3592,-2296,2311
3592,-2552,2055
3336,-2552,2055
3336,-2296,2311
3848,-1528,2311
4616,-1528,2055
4872,-2296,2055
4872,-2808,2055
4616,-2808,2311
4872,-2296,2311
5896,-1016,2055
5896,-1272,2055
6152,-1272,2055
4872,-1528,2055
2824,-2552,1799
1800,-4344,2055
3336,-4600,2567
5896,-3832,2567
5640,-3320,2567
4104,-3320,2311
3848,-3320,2823
3336,-3576,3591
3080,-3320,3847
3848,-3320,2567
5128,-3576,2055
4872,-3576,2823
4616,-2808,3335
3848,-3064,3335
3848,-3320,3335
4104,-3320,3591
4104,-4088,3335
2568,-4344,3079
2568,-3064,3847
3080,-2808,4103
3336,-3064,4103
3080,-2552,4359
2312,-2552,3847
2312,-3064,3591
2312,-3320,4103
-248,-3321,4359
-248,-3065,4615
1032,-2808,4871
-504,-2809,4871
-504,-2553,4359
1032,-2808,3079
4104,-2808,2567
7688,-1528,2567
6152,-504,2567
3080,-3064,2311
2824,-3832,3079
5384,-5112,4359
7176,6664,2824
10248,28936,-5368
17159,-13048,-15352
24071,4616,-24823
25863,16392,-32503
16903,22024,31241
-10489,19463,-22519
31751,2567,-4599
26887,-30457,9224
19720,1543,24072
11784,-24313,-27897
13320,22535,-22777
22280,15879,-22521
31240,19463,-26105
-26104,28167,-31993
-16376,-24569,23815
-5112,-13817,12039
1800,-10488,4871
3848,-8952,2311
3592,-7928,2311
3336,-8440,2823
3848,-11000,2823
5128,-10744,2055
5640,-9464,1799
5640,-9720,2055
7432,-11000,1799
8200,-11000,1031
8456,-9976,775
9480,-9208,775
9736,-9208,775
8456,-10744,775
9224,-11256,263
9736,-11256,263
9992,-11256,-249
10759,-11256,-761
11271,-11256,-1273
11783,-11256,-1273
12295,-9976,-1529
11527,-9464,-1529
11527,-10744,-1273
14343,-9976,7
15624,-7160,1287
17160,-5368,1031
18184,-4344,263
17672,-4088,-249
16903,-2808,-505
18183,-760,-1017
18183,-1272,-2809
17415,-2296,-3577
18951,-1272,-8697
20231,1032,-12024
21255,3080,-13048
21255,3080,-13304
20487,2568,-13816
19207,3080,-14072
20487,5128,-14840
20999,6152,-14840
20743,6152,-14584
19719,5896,-13560
17927,5896,-12536
16647,5896,-11512
13831,6152,-11000
13063,6152,-10232
15623,7176,-9208
15623,8200,-8696
15879,8200,-8696
15623,8456,-7160
12551,7944,-5624
10247,5896,-3832
8455,4872,-2296
6407,3336,-760
5383,2056,264
5384,1800,520
5384,1800,520
4360,1288,1288
3592,1288,1800
3080,1032,1544
2568,776,1800
2568,520,1544
3336,1288,2056
3336,1288,3080
3336,1544,3336
3848,1800,2824
4360,2056,2312
4616,1032,2312
4872,1032,2568
5640,1032,2056
4104,520,1800
2824,264,2056
4872,520,2056
6152,264,1288
5896,-1272,7
7176,-1016,-249
8199,1032,264
6408,1032,1544
5128,264,1800
5128,264,1544
5128,-248,1543
4872,-504,2055
4360,-248,2311
4360,-248,2311
4360,-1272,2567
3848,-1528,2567
4104,-1528,2567
5384,-1272,2567
5128,-1016,2823
3848,-1272,3079
3336,-1528,3079
3848,-1784,2823
4616,-1528,3079
5896,-248,3335
5384,8,3336
3848,-760,3335
3080,-760,4103
3336,-504,4359
3080,-504,4103
8,-504,4359
-1528,-505,4871
8,-2808,5127
2568,-3064,4359
4872,-248,3847
4616,776,3592
3592,8,3592
3336,-504,3591
3336,-504,3591
3080,264,4104
2824,1032,4104
3080,1032,4104
4872,1032,3336
6152,776,2568
5640,776,2568
3848,1032,3336
2824,1288,3592
4872,-1272,3335
6152,-3832,3335
5128,-248,4359
6152,15368,1800
13320,-26616,-6392
23303,-4856,-17656
28167,11528,-28407
26631,21512,31241
15367,26376,32521
-11257,20743,-19447
-30457,-1785,-3576
28423,30471,10504
18696,-1017,25863
13064,-27129,-28409
16136,22279,-24825
17928,18439,-23801
-31480,26119,-26105
-20984,-31225,32263
-9720,-19961,19463
-1016,-11001,7687
2312,-7672,4103
4104,-6648,3847
4616,-6392,2311
4360,-6904,2311
4616,-7672,3591
5384,-7672,3591
6152,-7416,2055
7688,-7672,775
9224,-8184,1031
11272,-7928,1287
12040,-7928,7
12040,-8184,-1273
11527,-8696,-1017
10759,-8952,775
11528,-8440,519
13320,-7672,-505
13063,-7928,-1017
11015,-8952,-761
11015,-8952,-1017
12039,-8696,-1017
13575,-8440,-1785
16391,-5880,-761
16135,-5880,519
15368,-6392,1799
14856,-5112,2567
14600,-3064,2055
15368,-1784,1287
17416,-248,1287
22024,1288,-248
23303,1544,-1784
21767,776,-3832
22279,1288,-7416
23559,2568,-11000
23559,4104,-13048
23559,4616,-13560
20999,4104,-13560
20487,4104,-13560
22023,5896,-14072
23559,7944,-14840
24327,8968,-14584
24327,8968,-13304
23303,9224,-12280
22023,9736,-11768
20487,9736,-11256
18951,8968,-11256
18951,9224,-10744
19719,10760,-9208
19719,11272,-8952
18951,11784,-8184
18439,12808,-6904
14599,11272,-5112
9991,8456,-3064
8967,6920,-1784
9735,6408,-1016
9735,6152,-248
8199,4872,8
7432,4616,776
7176,5640,1544
7432,5640,1544
7432,5384,2056
6152,5128,2568
5896,5128,2824
6152,5128,2568
7176,5128,2312
8200,5128,2312
8200,4616,2568
8200,4616,2824
8200,4872,2312
8200,4872,1544
7944,4104,1544
7432,2824,1544
7688,3592,2312
6152,3848,2568
7944,4104,1800
11016,5384,2056
8968,5384,2312
8712,5128,2056
11528,5128,1288
11272,4104,520
10504,4104,264
10760,4360,1288
9480,4104,2312
9480,3848,2312
9480,3592,2568
8456,3848,2568
7176,4104,3080
7176,3592,3080
8456,3336,3080
8200,3336,2824
8456,3336,2568
7944,3592,2568
7432,3336,3336
6920,3336,3592
5640,2824,3592
5384,3080,3336
5384,2824,3592
4360,1544,4104
6152,3592,4616
7176,4360,4616
5896,4360,5384
5384,4360,5896
5384,3848,4616
6920,3592,3592
9224,4360,3080
9480,4104,2824
8712,4616,3336
7432,4616,3592
6664,4360,3336
6920,4616,3336
6664,5128,3848
6664,6152,4104
7944,6408,3592
8456,6664,2824
8712,6408,2568
7176,5896,2312
5384,5384,2824
5384,1544,2824
5896,-1016,3591
8456,4616,4360
11784,21512,1544
12040,27912,264
25608,-504,-18168
28935,15880,-28407
27911,25864,31497
17415,29704,-32759
-9209,24583,-19959
-27897,2567,-4087
32519,-30201,10248
23304,3847,26120
16136,-23289,-27641
18440,27143,-24057
25864,24583,-23545
-30200,29191,-25849
-21240,-28153,32519
-9976,-16889,19207
520,-7672,7175
6664,-2296,3847
10248,1032,4104
10504,1288,2056
10248,-1272,1287
11016,-2296,1799
10760,-2808,1799
11016,-2552,775
11272,-2040,775
11272,-2040,1031
11272,-2808,1287
11272,-3064,775
11272,-3576,519
11784,-2552,775
13832,-2296,7
15368,-2296,-249
15367,-2552,-505
15111,-3576,-1273
16135,-3832,-1785
17415,-2808,-1785
18183,-1528,-2041
16903,-2808,-2809
17415,-2808,-2809
20231,8,-504
19463,776,776
19208,776,520
20488,2824,520
20232,2568,8
22536,4616,-504
25095,7176,-760
24071,7176,-1528
23047,5896,-2808
23559,5384,-7160
25863,7176,-11512
27911,9480,-13560
27143,9480,-14072
23559,10504,-14328
23047,10760,-14072
25095,11016,-15096
27911,13064,-15608
27143,12808,-16376
26119,12552,-16120
25863,15112,-14840
25351,15368,-13560
25351,15368,-12536
23303,15368,-12280
20743,15624,-12024
20231,16392,-11256
19719,15880,-9976
19975,14600,-8696
19463,13832,-7416
16647,12552,-6904
15623,12552,-5112
13063,12040,-3064
9991,8968,-1528
9735,7944,-1016
11271,8200,-248
11015,7944,264
8712,6920,264
7944,6408,264
7688,5640,520
7688,5128,1800
7944,5640,2312
6920,5896,2312
5896,5896,2312
5640,4360,2312
7176,3080,2568
9736,4360,1288
9480,4360,520
8712,4616,1032
8968,3592,2056
8712,776,1800
8200,776,1800
8200,2824,1032
9224,3336,264
11016,3080,-1016
10247,2312,-1272
7687,2312,-760
5895,2056,-504
7175,2056,776
7944,1288,1288
8200,8,520
8456,-248,519
6408,-504,7
5384,-760,7
5640,-1272,775
7944,-1016,1543
7176,-1272,1799
6408,776,1032
4616,8,8
3336,-2552,519
3592,-3576,1543
2824,-3320,2311
3080,-2040,2055
3848,-2040,1287
3592,-2040,519
3080,-1784,519
3592,-248,-249
4359,264,-1272
4615,-1528,-1273
4359,-3832,7
3592,-4856,1287
1544,-4856,1287
8,-4600,263
8,-4344,7
264,-3064,263
264,-2808,-1017
1031,-2808,-1785
2311,-3064,-1529
2055,-3832,-1785
1031,-4600,-1017
-2041,-5881,775
-2296,-5625,7
-2296,-3065,-505
-3833,-3321,-1273
-4345,-4345,-1017
-4345,-5881,263
-5368,-6137,-761
-3321,-6137,-1529
-2553,-9209,-1785
-4345,-10745,-1529
-4857,-4857,-1529
-1785,13319,-6136
7431,-30456,-15096
16647,-13816,-25080
20487,8,30729
15111,10760,24841
-7673,17159,30473
30727,14599,-23031
19463,-11257,-11000
14343,16391,5384
5128,-20473,23303
-248,16902,32007
776,3591,-30457
6920,2055,-29177
9224,2823,-28921
23304,14087,29703
31752,23815,20231
-24824,-31225,6663
-19704,-24825,-2553
-16889,-23545,-4857
-14073,-23545,-4857
-13049,-25081,-5113
-14073,-26617,-5625
-15097,-26617,-5881
-16377,-26617,-6649
-14841,-28153,-7161
-11513,-29689,-7673
-10745,-29945,-7929
-10745,-29945,-8441
-10745,-30457,-8697
-10745,-31481,-8953
-10233,-32249,-8953
-9721,-31993,-9977
-9977,-31481,-10233
-12793,-31993,-9977
-13817,-32505,-9977
-12537,31751,-11001
-11257,31239,-12537
-9977,31751,-13305
-8953,31495,-13049
-8953,32007,-13049
-11513,31495,-13049
-11769,32263,-13305
-8953,-30457,-12537
-7929,-27897,-11257
-7929,-26105,-11257
-8441,-26105,-12537
-8953,-26361,-12793
-8441,-26361,-12537
-9465,-26361,-14329
-11001,-26361,-17145
-10489,-25081,-21497
-8953,-23801,-24057
-7161,-22265,-24313
-7929,-21753,-24057
-9721,-21241,-24569
-8953,-20217,-24825
-7929,-18681,-25081
-7929,-17401,-25593
-8953,-17657,-25337
-11257,-17657,-24057
-14329,-17145,-21753
-15097,-16633,-20729
-15097,-16889,-20473
-16121,-17401,-20473
-16121,-17401,-19961
-15865,-17657,-19449
-16377,-18425,-17913
-18937,-18425,-16633
-20729,-18681,-15609
-21497,-18937,-13305
-23033,-19193,-11257
-25593,-21497,-10745
-26617,-23033,-10489
-26617,-24057,-9721
-26617,-24057,-9721
-27897,-23801,-8697
-28921,-23545,-8185
-29177,-23289,-7929
-30457,-23289,-6905
-30201,-23033,-6649
-27641,-23033,-7161
-26617,-23033,-7673
-25849,-22521,-8441
-25593,-22009,-8441
-26361,-21753,-8185
-26873,-21753,-7929
-26361,-22009,-7929
-26105,-21753,-8185
-25849,-21241,-9209
-25081,-20473,-9465
-24825,-20217,-9209
-25081,-19961,-9209
-24825,-19705,-9465
-24825,-19449,-9721
-24825,-20217,-9465
-25081,-20729,-9721
-25593,-20729,-10233
-25337,-20473,-10745
-24057,-18425,-9721
-23289,-17145,-8441
-22009,-17657,-8697
-22265,-18169,-9209
-24057,-19449,-9465
-25337,-19449,-9465
-25337,-19193,-8697
-25081,-19449,-8697
-24313,-19449,-8697
-23545,-18937,-8697
-24569,-18681,-8185
-26361,-18425,-6649
-26873,-18169,-6137
-26617,-18681,-6905
-25593,-18937,-7161
-24825,-18681,-6905
-23289,-16633,-6905
-25081,-17145,-6905
-26105,-17913,-6137
-26361,-18169,-5625
-25593,-18169,-5881
-24825,-17657,-6137
-24825,-16889,-6137
-24825,-16889,-6137
-25849,-17145,-5881
-27385,-17657,-5625
-25849,-16633,-5881
-24569,-15097,-5113
-27129,-15609,-4345
-28665,-15865,-3833
-27897,-15865,-4089
-27897,-15865,-4089
-26361,-14329,-3833
-23801,-13561,-4857
-23801,-14073,-5881
-23801,-14329,-5881
-23545,-14329,-5625
-24825,-13049,-4601
-25337,-14073,-4345
-24057,-18425,-4345
-23033,-20985,-4601
-21497,-7673,-5369
-19449,13575,-11000
-11513,-29177,-20984
-2809,-9977,-32504
-1273,3591,24585
-8697,11015,22025
-29945,12295,30473
13319,-505,-19960
5639,-28409,-5624
-1529,2822,9224
-11000,-28410,24327
-12280,13830,32007
-7416,6662,-31225
1032,9991,-31737
10248,15879,28935
17928,24839,20487
26888,-29177,8455
-29944,-22009,-249
-24569,-19705,-2553
-20985,-19705,-4089
-19193,-19705,-5113
-18169,-19193,-4857
-18425,-19449,-4857
-19193,-19193,-4857
-19961,-19449,-4857
-19705,-20985,-4857
-19961,-21753,-4857
-20217,-21497,-5369
-20217,-20729,-5881
-19705,-20729,-5625
-17657,-21241,-5625
-15865,-21497,-6393
-15865,-21497,-7417
-16121,-21241,-7161
-14329,-19961,-7161
-14329,-20729,-7673
-16633,-21497,-7929
-16633,-21497,-7929
-14841,-21497,-8953
-11769,-19705,-9209
-10489,-18169,-9209
-11769,-18681,-9977
-11513,-18681,-10745
-8697,-17401,-11257
-8185,-16889,-11769
-7929,-15609,-12281
-7673,-15097,-12793
-8953,-15097,-12537
-9465,-14841,-12537
-9209,-14329,-12537
-7417,-12537,-12793
-7417,-12537,-12537
-7161,-11513,-12025
-7161,-9721,-12025
-8441,-9209,-12025
-9721,-9209,-11513
-10233,-8953,-11513
-9977,-8185,-11769
-10489,-6137,-12025
-11769,-4601,-11769
-12537,-3833,-11513
-12025,-2553,-11513
-10489,-249,-11257
-10489,1031,-11000
-11257,775,-11256
-11001,519,-11256
-12793,519,-10744
-14585,1287,-9208
-15097,2311,-7672
-17145,2055,-6136
-18937,775,-4600
-17657,519,-3064
-16889,775,-2040
-16889,519,-1272
-17913,775,-1272
-19449,1543,264
-19704,1543,1800
-19448,2055,1800
-19704,2311,776
-19448,1543,-2296
-17401,1031,-6136
-17401,1287,-8952
-20217,2311,-8952
-20473,2311,-8952
-16889,1799,-9720
-14329,1031,-10232
-14073,1287,-11256
-14073,1031,-11512
-15097,-249,-11001
-16633,-2297,-9465
-16889,-2809,-8697
-16889,-3065,-8441
-18169,-4089,-7673
-17913,-5113,-7929
-15609,-3833,-7673
-13561,-2553,-7417
-13561,-2553,-7929
-13561,-2553,-7673
-12793,-3321,-7417
-12793,-4089,-7417
-19449,-5369,-4345
-21497,-5881,-2809
-20473,-7417,-2297
-17401,-7929,-3065
-14841,-7929,-4089
-14585,-6393,-4345
-16633,-5625,-4089
-18681,-5881,-3065
-18937,-5881,-2297
-18937,-5881,-2297
-19961,-5881,-2297
-19961,-6137,-1785
-19449,-6137,-1273
-18681,-5881,-1529
-18681,-5369,-1785
-19193,-5113,-1273
-19193,-5113,-1017
-19449,-5369,-761
-19705,-5369,-505
-19961,-5625,-505
-20217,-5625,-505
-21753,-5625,-761
-21497,-5625,-249
-20985,-5369,7
-20984,-5369,-249
-20729,-4345,263
-21496,-3577,1543
-25336,-3577,2823
-24056,-3833,2567
-19192,-4857,7
-17912,-5369,-1017
-17913,-4857,-505
-17401,-3321,263
-17400,-2809,775
-19192,-3065,775
-19704,-2809,775
-19704,-2553,519
-19704,-3065,775
-18424,-3065,1031
-17912,-2553,1287
-20216,-1529,2055
-20984,-1273,2055
-20728,-1785,2311
-18936,-1785,1543
-16888,-2041,775
-17144,-1529,519
-19960,-1273,1799
-21752,-2553,2055
-20984,-2553,2055
-19704,-2809,2055
-18936,-505,2311
-17912,7,2056
-17400,7,2056
-17400,-505,2055
-17400,-249,1543
-17656,7,1544
-17144,263,1288
-16632,263,1544
-16888,7,1544
-16888,-249,1799
-17400,7,2056
-19704,519,3080
-18168,519,3336
-17400,1031,3080
-20728,1287,3080
-20472,1799,3080
-16376,1799,2312
-14328,2055,2056
-14584,2055,1288
-15608,2311,1288
-15608,1287,1288
-15608,1287,1544
-17144,1543,1032
-16632,1543,776
-16120,1799,776
-16376,2823,776
-16376,2567,1288
-15352,3079,1544
-14072,519,1544
-12792,-1529,1543
-12024,3335,1288
-12024,18183,-1528
-6905,-24569,-10232
2567,-2808,-21240
6151,14600,-30967
6151,25864,28169
-7417,29703,30217
30983,26375,-23543
16903,6407,-10231
14599,-26361,2824
4360,6407,18440
-4088,-21754,31239
-3320,25862,-27385
3848,22023,-26105
13064,25351,-29177
21000,-31225,30471
-32760,-18169,20743
-18936,-7673,8711
-14072,-4601,2567
-14328,-3321,1543
-16376,-4857,1543
-16376,-6137,1287
-14072,-6393,1799
-11256,-3577,1543
-9976,-1529,775
-8952,-1785,-761
-8953,-4089,-1017
-9465,-4857,-1017
-9721,-3065,-761
-9977,-2553,-249
-10489,-4089,-505
-9977,-4601,-505
-9465,-4857,-761
-8185,-4089,-1785
-5625,-4089,-2553
-5369,-4345,-2553
-6649,-4089,-2553
-5625,-3065,-2553
-3833,-2041,-3065
-3321,-2297,-3833
-4601,-3321,-4345
-5369,-2809,-4345
-3321,263,-4344
-2041,1799,-5112
-1785,1543,-5624
-3833,-761,-5881
-4857,-761,-6137
-3321,7,-7160
-249,2055,-7160
263,3336,-7160
-1529,3079,-7160
-2809,4103,-6904
-2553,5383,-6392
-2297,5895,-5880
-1273,5895,-6392
519,7176,-7160
-1017,7943,-6648
-2297,8711,-5880
-1017,9991,-5112
263,11528,-4088
1543,13576,-4344
1287,15624,-3576
1287,18440,-2296
1287,20488,-2040
263,21000,-2040
-1273,21767,-2296
-3065,22279,-2040
-3833,22535,-2040
-2809,22791,-5368
-2297,22791,-7672
-2297,22535,-13048
-1529,24071,-11256
-3833,23815,-9720
-6649,22023,-9720
-7417,20999,-8952
-7929,19719,-7928
-7673,18695,-7416
-8953,17415,-5880
-9721,15367,-4600
-10233,14087,-3064
-11769,13319,-1784
-11257,12807,-1528
-9721,11527,-1784
-9465,10503,-1784
-11257,10503,-1016
-12025,9991,-1016
-9977,9991,-1016
-7929,9735,-760
-8953,9223,-248
-10489,9223,776
-11256,8711,1544
-11256,7943,1544
-9720,7943,776
-9720,8455,520
-9976,9223,264
-10232,9991,8
-9720,9991,-248
-9209,10247,-504
-10489,10247,-248
-11001,10503,-504
-11001,9223,-504
-11513,8455,-504
-10745,9735,-248
-11001,10247,520
-11000,9735,776
-10744,9223,1032
-11512,8199,520
-12536,7431,264
-12536,7687,520
-9976,7943,520
-9976,7943,1800
-14328,7943,2568
-15096,8199,2568
-13048,7431,2568
-11512,6663,2568
-11512,6919,2312
-12792,7943,2824
-12792,8455,4360
-12792,8711,4616
-12792,8455,4360
-12536,8455,3080
-12536,8199,3080
-14328,7687,3848
-15864,6919,3848
-15352,6919,3848
-12024,9223,4872
-11768,9991,4872
-13304,9223,4360
-13560,9223,4360
-13560,8967,4360
-13560,8967,4616
-13560,10503,5640
-13816,10503,5384
-12792,9991,4616
-11256,10247,4360
-11256,10503,4360
-12024,10759,4616
-13560,11015,4872
-14584,9991,5384
-14328,9991,5640
-15608,10247,6152
-16376,10247,5896
-13560,11015,5640
-11000,11527,5384
-9976,11527,4616
-11000,12295,4872
-12792,12295,5896
-12792,11783,6408
-13048,11015,6152
-15096,10247,5384
-13560,12295,5640
-11512,14087,6152
-11256,12807,6152
-11256,12551,6152
-11768,12295,5640
-12536,12039,4872
-11512,13063,4872
-9720,14087,4872
-9720,13575,4872
-12536,13831,5384
-12536,11527,5384
-10488,8199,5384
-9720,8967,5640
-8440,22023,3592
-3064,-21497,-3064
5639,1032,-14327
12039,19976,-24823
12295,-32504,-32503
1031,-27384,32521
-4857,-26105,-32503
20743,21511,-10487
16647,-6649,3592
11016,26631,18184
776,-4089,31239
-1272,-27642,-26105
3080,29703,-23545
12040,-32761,-23289
23816,-23033,-27897
-30968,-12537,27911
-20472,-2041,15367
-14072,3591,7944
-13304,4615,5896
-13304,5127,4872
-12024,5127,5128
-10232,5383,5128
-8184,5127,4616
-6904,5127,3848
-7160,5383,3336
-6904,5127,3336
-7160,5127,3336
-5624,5383,2568
-4344,5383,1800
-5624,5127,2056
-5880,4615,2824
-6136,4615,2824
-4600,4359,1800
-3320,4103,1544
-5112,3847,1800
-5624,4103,1800
-3832,4615,1032
-2040,4615,-248
-761,4871,-760
-1785,4103,-760
-2553,3847,-760
-761,6919,-1016
263,7688,-1272
1799,8200,-2552
2567,9224,-2552
2055,9480,-1784
2055,9480,-760
2055,10248,1032
776,12040,1544
8,15368,1544
264,16392,1800
1288,16136,1800
3080,16904,2056
4104,16904,776
3848,17416,-2808
4103,18440,-7160
3591,18952,-7416
3847,22536,-8184
4871,23048,-10744
6151,22792,-13048
5127,22792,-12792
5383,23560,-11256
5895,26120,-10744
4103,26120,-9976
519,24072,-7672
-2297,22791,-5624
-3833,21767,-4856
-4089,21767,-4856
-3065,21767,-3832
-2809,21255,-2808
-3321,20999,-2808
-4089,20999,-2040
-4089,20743,-1272
-4345,20743,-248
-6137,19975,1544
-7672,18439,2824
-9464,16647,3592
-11256,15879,4616
-13816,15623,5896
-14328,15623,6152
-13048,15367,6152
-12280,15111,5896
-12536,15879,5896
-9464,17671,6152
-9464,17415,5896
-10744,15623,5896
-11000,15111,5640
-10488,15111,4872
-8696,16647,4872
-7416,17159,5384
-7672,16903,5384
-7672,16903,4872
-7928,16903,4104
-9464,16135,4104
-9464,16391,4360
-9720,16135,4360
-9464,16135,4360
-7416,16391,3848
-7672,16391,3336
-8696,16135,3336
-9976,16391,4616
-9976,16135,5384
-8184,16135,5384
-7672,15879,5128
-8440,16391,5128
-8952,16647,5384
-8952,16647,5896
-9464,15111,6152
-9720,14855,6152
-13048,15623,7176
-13304,16135,7944
-12280,15367,7944
-11000,15367,7944
-8952,15111,6152
-10232,14599,5896
-10744,14343,6408
-10232,14855,7432
-10488,14855,7944
-10232,16391,7688
-9720,16647,7688
-10744,15367,7432
-11000,15111,7688
-11000,14855,7688
-11256,15111,7944
-11512,15111,7944
-11512,15111,7688
-12536,15367,7688
-12792,15623,7944
-12536,16647,8200
-12024,16903,7944
-11512,16391,7688
-10488,16647,7688
-9208,16903,7176
-8952,17415,6920
-9208,17671,6408
-9976,17671,6664
-10488,17671,6920
-10744,17927,7176
-10232,17927,6920
-10232,17671,6920
-10488,17415,6920
-12024,17671,6920
-11000,15623,6664
-8440,13575,6664
-8184,14855,7432
-8696,28167,5640
-3064,-12793,-2296
7175,10504,-13559
12807,26376,-24055
11527,-28408,-30199
-2041,-23801,-28663
-27641,-26873,-17911
19975,17159,-2551
13575,-15609,12040
2824,18439,27144
-5368,-9466,-26617
-5112,-17658,-23801
10760,-30201,-20985
19720,-25593,-23033
27144,-17401,-29689
-28408,-5625,24071
-17656,3591,12296
-12024,7943,7944
-11000,9735,7176
-10232,10503,5640
-8184,9735,5640
-7160,7687,5896
-7928,7431,5640
-7416,9223,5384
-5624,8967,4872
-5624,8199,4616
-5624,8455,5128
-6904,8199,5128
-7416,7431,4872
-6136,7431,4360
-3832,7687,4104
-3832,7943,4104
-3832,8199,3592
-2296,7431,3080
-1784,6919,2824
-2296,6919,3080
-2296,7943,2824
-2552,7175,2056
-1272,5895,1800
-504,5383,520
-4088,5639,520
-6904,6407,1288
-4856,7431,1288
8,9480,520
4360,11272,-1528
6407,11784,-3320
6663,12296,-3320
6407,13064,-2808
5895,13320,-1784
5127,14344,520
4104,15368,2312
4104,16648,2568
5128,18696,2312
5896,20488,2056
6152,22536,2568
5896,22792,3080
4872,23048,2824
4872,23816,-248
5383,25864,-5624
6407,27656,-9464
6407,28168,-9464
6663,28680,-9720
5639,30984,-9464
4103,30984,-9720
4103,31240,-8184
3079,30216,-7672
519,27656,-7672
-1785,26119,-6136
-4857,24327,-3832
-6137,23559,-1528
-4601,24327,-248
-4601,23559,8
-4856,21511,776
-4344,21511,1800
-5112,20999,1800
-5368,20231,1544
-5624,19975,2568
-8184,19207,4872
-9720,18439,5640
-9976,17159,5896
-10232,16391,5896
-9208,16391,5896
-9208,16391,6152
-10232,16391,6408
-9976,16391,7176
-8440,16135,7176
-6648,16903,6920
-6648,16647,5896
-8440,16391,5640
-9976,15111,5640
-9720,14599,5896
-7928,15111,5640
-7160,15367,5640
-8952,15111,5640
-8952,14855,5640
-6648,14855,5896
-8440,13831,5640
-11512,11783,5640
-10488,11783,5640
-7928,11783,6152
-7416,11527,6152
-8696,11783,6408
-11768,12039,7688
-13048,10247,7944
-12280,9735,7944
-12024,9991,8200
-12536,8967,8200
-13560,8967,8968
-13560,8967,8200
-13048,8455,7944
-13560,8455,9736
-13560,8455,11272
-9720,12807,11272
-4856,20743,5640
-1016,28423,-4088
263,-29944,-8696
7,-19448,-14840
3079,-3576,-28152
6151,12552,24329
6919,23816,14601
6407,30216,6409
5383,-30200,9
6151,-20984,-3575
10246,-13816,-1271
13062,-14072,2057
13063,-13816,4105
11783,-13048,1289
12039,-17144,-4087
13574,-26616,1289
13575,25864,11785
9991,9736,19721
7943,-6648,27656
9223,-20216,-29944
9223,32520,-22264
7687,17416,-15352
1031,3592,-7672
-2553,7,-5112
-9209,-10489,5383
-11512,-12025,10503
-17656,-13561,14087
-24056,-17401,17159
-27640,-21753,20487
-27896,-24313,22279
-27896,-25337,22791
-29176,-26617,22791
-29432,-27897,23303
-30712,-30969,26119
-30712,32519,27143
-30456,31495,27143
-29432,30215,27911
-25592,29703,28935
-26872,27143,30471
32264,24071,32007
31752,22279,32519
-31992,18951,-31481
32008,16647,-29945
28936,15623,-29433
25864,12295,-27641
25864,9991,-25849
28424,8711,-25593
29960,8711,-26361
29704,8711,-26873
29448,7687,-24825
29704,7175,-24057
27656,5127,-23033
23048,3079,-23033
22536,4871,-23033
24840,6407,-23289
22792,7175,-23545
21768,8711,-24825
24072,9991,-27129
25608,13063,-28665
26632,16903,-29689
26376,18951,32519
26120,22279,29191
28424,27143,27143
30984,31495,25095
30984,-30969,22023
29960,-27641,19207
28936,-23801,16903
29704,-20985,15623
32264,-18937,12807
-31736,-17401,9479
-31224,-14585,7687
-30200,-11001,6663
-28664,-10489,4871
-28408,-10745,4103
-29688,-11001,3079
-30712,-11257,3079
-29688,-10233,2567
-29432,-10489,1287
-32248,-11769,775
31496,-13305,519
31496,-13817,519
-32248,-12025,519
-30456,-9977,1287
-30968,-11001,2055
32008,-12793,3847
29960,-14329,5895
29192,-14329,6407
29704,-12537,6919
31240,-11257,7943
31496,-11769,8199
31240,-12025,7687
30728,-12281,6919
29448,-13305,5639
29192,-13817,2567
30216,-13817,-2297
31751,-12793,-5369
32519,-12025,-5625
32263,-12281,-5625
32007,-12025,-6137
31495,-12281,-7673
31751,-12537,-7673
30471,-12793,-6649
30471,-14073,-5881
30983,-15097,-5625
30983,-15353,-5113
30983,-15609,-4345
32263,-15865,-4089
32519,-16633,-4601
32519,-17657,-5369
32519,-17913,-5369
32263,-16633,-4857
31751,-16377,-4601
32263,-16377,-4345
32519,-16377,-3065
30471,-18169,-1785
27655,-19705,-1273
25351,-19705,-761
25095,-19961,-505
25095,-19961,-1017
24327,-19705,-761
24327,-19193,-761
25607,-18425,-1273
25863,-18425,-1785
26119,-18681,-2297
25607,-18937,-2297
24839,-19449,-2041
25095,-18681,-1785
25863,-18169,-2041
26119,-18169,-1785
26119,-18169,-1529
25607,-18169,-2041
24583,-18425,-2041
24583,-18681,-2041
26631,-18169,-1785
26375,-17657,-1017
24071,-17657,-1017
24839,-17657,-761
25607,-17913,-505
23815,-18169,-505
23815,-17145,-505
25095,-16889,-249
25607,-17657,-249
27143,-17401,-505
26631,-16377,-761
23303,-16121,7
23048,-16377,1031
25864,-16377,775
28424,-16633,-249
28679,-16377,-1273
27399,-15609,-1017
27655,-15609,-249
27911,-15353,-249
27911,-15097,7
27144,-15097,7
24072,-15097,263
22792,-15609,775
23816,-15865,1031
26120,-15097,1031
27912,-14073,263
27400,-14585,-505
25351,-14841,-505
25863,-15097,263
27656,-14329,775
28424,-13049,775
27400,-13049,519
26632,-14585,263
26888,-14329,263
28680,-12281,775
30472,-10745,775
30472,-11769,519
28168,-12281,263
28168,-11769,263
29960,-10489,263
30728,-10489,7
30472,-10233,-249
30215,-10233,-249
30215,-9209,263
31240,-8953,7
31496,-8697,7
31496,-9209,7
32008,-12025,7
-32760,-12281,263
-31736,-5113,7
-30712,13575,-4600
-24057,-30201,-13560
-15353,-11257,-23800
-12537,6407,-32503
-17145,17159,27657
27143,20231,31241
4103,16391,-23287
519,-6137,-12792
-4857,23046,2824
-18424,-14842,21255
-23288,21766,30727
-20472,8198,-29433
-13048,7942,-27129
-2808,13830,-31481
7688,23815,27143
11528,27143,25351
26632,-21497,9223
30216,-17145,3079
30984,-15609,775
32520,-15353,519
-29432,-15609,775
-28408,-15865,1031
-28408,-15865,519
-28920,-15609,7
-30200,-15609,7
-28920,-15865,263
-26872,-16377,-249
-25849,-16121,-1017
-24825,-15865,-1529
-25849,-15865,-1785
-27129,-15609,-761
-25593,-16121,-761
-23801,-16889,-2553
-23033,-17401,-3833
-24825,-17145,-3577
-24057,-15865,-2297
-22265,-14329,-2297
-21497,-14073,-3321
-21497,-13817,-3065
-22265,-13817,-1017
-22777,-14329,-249
-20217,-11257,-505
-18937,-8185,-1017
-19449,-6905,-1529
-19705,-5881,-1529
-19705,-4857,-1785
-18937,-4857,-3321
-14841,-4345,-7161
-11257,-2809,-11769
-11257,-2553,-14585
-11513,-1273,-14585
-11769,-249,-14329
-12793,7,-15352
-13049,7,-15608
-12537,775,-14840
-12025,1799,-14328
-12281,1799,-13816
-12793,1287,-13816
-13305,1031,-12792
-14841,1287,-11512
-14841,2823,-11512
-14073,3847,-11512
-13817,5127,-11256
-13305,7431,-10232
-13049,8711,-9464
-13049,8967,-9720
-13817,8967,-8952
-15353,7431,-7672
-18425,5895,-4856
-21753,5383,-2552
-24569,4871,-1272
-26617,4103,8
-27640,2311,1032
-26360,2055,776
-23544,2055,776
-22008,2055,264
-22520,1799,1288
-22264,1287,2312
-22264,775,2312
-24056,263,3080
-25080,7,3336
-26360,-761,3591
-28152,-1529,4359
-26872,-1529,4871
-25336,-1273,4359
-24824,-1529,3591
-23288,-249,3591
-22008,775,3848
-22008,775,2824
-21240,1031,2312
-20984,1031,1800
-20472,1031,1800
-19704,1799,1544
-18168,2823,776
-17912,2823,520
-20728,2311,1032
-24312,2055,2312
-24824,3335,3592
-20472,3335,2056
-17144,3335,520
-15864,3335,264
-15864,3591,264
-17144,3335,520
-16376,5127,1288
-14584,5383,1288
-14072,4615,1032
-14072,4615,1032
-15608,4103,1032
-16376,3335,1800
-14584,3847,2312
-13560,4615,2056
-14328,4615,1800
-15864,4871,3080
-16376,4359,4104
-15608,3847,3848
-15352,3847,3336
-15352,4359,3336
-16632,4615,4104
-16888,4615,4872
-15864,4615,4616
-15352,4615,4616
-15352,3847,4616
-15096,3591,4872
-15352,4871,4616
-14840,5895,4616
-14840,5639,4616
-14840,5383,4616
-14840,5383,4872
-16120,5127,4872
-16376,5383,5384
-15608,5895,5384
-16888,4359,5896
-17912,519,6152
-17144,-1273,6407
-14328,6151,5896
-6136,27911,520
2824,-12024,-10232
6919,7944,-20727
7943,21512,-28151
6151,27656,-31991
3591,29448,-32759
26119,16647,-10487
10759,-12537,6152
6920,19207,20744
-504,-11002,-30969
-4856,32518,-23033
8,24583,-20985
10760,25351,-22265
24584,-32249,-27641
-30456,-18681,27143
-22008,-7161,13575
-15352,-2809,7431
-11256,-2041,6407
-11000,-249,5127
-13048,519,4616
-12792,-2041,5639
-11000,-3577,5639
-10232,-3577,5127
-7416,-761,4103
-4600,-249,3591
-2296,-1529,3847
-1784,-1273,3079
-4344,-1529,2823
-7160,-3065,2823
-5368,-3321,3079
-3832,-2809,3591
-1272,-1017,2823
-1528,-1273,2311
-1528,-2553,1799
-504,-2553,1799
264,-2040,1543
264,-1784,1031
776,-2040,7
2312,-2040,-505
2311,-2040,-505
2311,8,8
3080,1544,-248
2823,1288,-248
2567,1288,520
264,1032,2568
-248,2055,3336
4872,4872,2568
8456,7432,2056
10248,9480,1800
10760,11272,1544
10504,11784,1544
10248,11528,1800
10248,11272,-760
9991,11784,-6648
11015,13320,-9976
11783,14344,-9720
11015,16648,-9976
8455,16904,-10488
7431,18184,-10488
8967,19720,-10744
9223,19976,-9720
6919,19464,-7928
3591,18696,-6136
1799,18184,-4600
1799,17672,-3320
3079,16648,-3064
3079,15880,-2808
3335,15368,-2040
3335,15624,-1272
2055,15880,8
2568,16136,264
2824,16904,264
776,15368,1544
-1272,12039,3592
-3576,10247,4616
-5624,9735,4872
-4856,10503,5128
-2808,11271,5896
-2808,11015,6152
-3576,12039,6408
-4088,12295,6408
-1272,13575,5640
520,13320,5384
776,13832,4872
520,13832,4616
-1016,13575,5384
-760,13319,6152
776,13320,5896
1032,13832,5640
776,13576,5384
8,13064,5384
-1784,13063,5640
-1784,12807,5384
8,12552,5640
1544,12808,6152
1800,13064,5896
1800,13832,6152
1800,13576,6152
2568,13064,6152
2568,13320,6152
2568,12808,6152
1544,12552,6152
1544,12808,6664
1800,13064,6920
2056,13576,6664
1032,13320,6920
-2040,13063,7688
-2040,12295,7944
-760,11783,7432
-2808,11015,7432
-4344,11783,8712
-2040,12551,8712
520,13064,8200
1032,14344,8200
776,14344,8456
1032,13064,8200
1032,13064,8456
776,12808,7432
264,11784,6920
-248,12039,8200
264,13832,8968
1800,15368,8456
1800,15112,7688
1800,14600,7176
2056,14600,7176
2056,14856,7688
1800,15112,7688
1544,15112,7432
1288,15112,7432
1544,15368,7688
1544,15368,7432
1544,15624,7432
-760,15623,7432
-1272,15623,7432
776,16648,7944
1800,15880,8456
2568,12552,8200
4360,12552,8200
7176,23816,5640
13320,-20216,-2296
20999,2568,-12791
25863,21512,-22007
25607,-31480,-29175
17415,-25336,-31479
-3321,-25337,-23287
-25593,25095,-7927
31495,-4601,6664
24840,27655,21512
15112,-2297,-30457
15112,-23033,-22777
21768,-30713,-20729
30216,-29433,-22009
-26104,-21753,-27129
-15864,-9977,28679
-4856,1031,16392
-2040,2567,13064
1288,7944,7432
4616,9480,6408
7944,9480,5640
8456,8200,5640
8200,7944,5640
8712,8200,4360
8968,7944,3592
10248,7432,3592
10504,6408,3848
9992,7176,4872
9736,8712,5128
9736,8456,4616
11016,6920,4104
13320,5896,3592
14344,5640,2568
14600,6664,2056
15368,7432,2056
