-3577,32005,-13305
-3577,31237,-13049
-3321,30981,-13305
-3321,30981,-13561
-3833,31749,-13305
-3577,31749,-13305
-4089,31493,-14073
-4345,30981,-14073
-4345,30981,-13817
-4345,31237,-14073
-4089,31493,-14073
-4089,31493,-13817
-4345,31493,-14329
-4089,30725,-14585
-4089,31493,-14585
-4345,31749,-14585
-4089,31493,-14329
-4089,31237,-14329
-4089,30981,-14329
-4345,31237,-14841
-4345,30981,-14841
-4345,30981,-14585
-4601,30981,-14841
-4345,31237,-14841
-4345,31237,-14585
-4345,30725,-14329
-4601,30469,-14329
-4345,30725,-14841
-3833,30725,-14841
-4345,30469,-14585
-4345,30213,-14585
-4345,30469,-14841
-4601,30469,-15353
-4601,29701,-15097
-4601,29701,-15097
-4345,29957,-15097
-4345,29957,-15353
-4345,30213,-15353
-3577,29957,-15097
-3577,29957,-15097
-4089,29701,-15353
-4089,30213,-14841
-4089,30469,-14585
-4345,29957,-15097
-3833,29701,-15353
-3321,29701,-15353
-3065,29701,-15097
-3065,30213,-14585
-3321,30469,-14585
-3321,29701,-14841
-3321,29701,-15353
-3577,29957,-15097
-3577,29957,-15353
-3321,29701,-15097
-3065,29701,-15353
-4089,29701,-15865
-3833,29445,-16121
-3833,29701,-15609
-4089,29701,-15097
-3833,29701,-15097
-3833,30213,-15353
-3577,30469,-15097
-3321,30981,-15097
-3321,30981,-14841
-3065,32005,-14073
-2297,-32763,-12793
-1529,-31483,-11257
-1273,-30715,-10233
-761,-30203,-9465
-505,-30459,-9721
-505,-30459,-10745
-249,-30971,-12281
-761,-31739,-14585
-761,-31995,-16121
-1017,-32251,-15865
-1017,-32507,-15353
-1785,31237,-14073
-2553,30213,-13817
-3321,29957,-13817
-4857,29445,-14329
-4857,29445,-14585
-4601,29445,-14585
-4345,29701,-14585
-3321,29445,-14841
-3577,29445,-14585
-3577,29701,-14329
-3577,29701,-15097
-3321,29701,-15609
-3577,28933,-15353
-3577,29189,-15353
-3833,29189,-15609
-3833,29445,-15353
-3577,29445,-14841
-3577,29189,-14841
-3321,29189,-14841
-3577,29445,-14329
-4089,29445,-12281
-4857,29957,-8953
-5369,32005,-7417
-5113,-31227,-11513
-2809,-26107,-24057
3335,-12794,16647
10759,1798,-15352
17670,7942,23048
21766,6918,7688
21510,-3834,6919
14342,-21754,23815
10758,-26618,30983
518,32262,2567
-505,31749,17159
-761,31749,26631
-1017,31493,-30457
-2553,31493,-22009
-3065,30981,-15865
-3833,29189,-13817
-4857,27397,-13049
-4857,28421,-11513
-4601,28933,-10745
-4857,28165,-10745
-5369,27653,-10233
-5625,27653,-9721
-5625,27653,-8441
-5369,27909,-7673
-5113,27653,-7929
-5113,27909,-7929
-5369,27909,-7673
-5113,27653,-7161
-4601,27653,-7417
-4089,27909,-7673
-4089,28933,-6905
-3833,29189,-5625
-3321,29189,-5625
-3577,28421,-5881
-3577,28421,-5881
-3577,28933,-5113
-3833,29189,-4857
-3577,29701,-4857
-2809,29701,-4857
-2809,29957,-3065
-2297,30725,-2041
-2297,30213,-1785
-1785,30213,-1785
-1273,30981,7
-1272,31493,775
-760,31493,1031
-760,31237,1543
-504,31493,2823
-248,32517,4871
-504,-32763,5127
-248,32517,5639
520,-32762,6663
1544,-32250,7431
1544,-31738,7431
2568,-31226,7175
2568,-31226,7687
2824,-30714,8711
3080,-29690,8455
2824,-29690,8455
3336,-29434,8455
4104,-29434,8199
4360,-27898,7175
4104,-27898,6663
4616,-27130,6407
4616,-27386,5383
4872,-27130,4103
4616,-26874,2823
4616,-26874,2567
4872,-27130,1031
4872,-27130,-249
4871,-26874,-1017
4359,-26874,-2041
4103,-27642,-2809
4359,-27898,-3833
3079,-28922,-4601
2567,-28922,-4601
2823,-28666,-4857
2823,-28922,-5625
3079,-28922,-6393
1543,-29178,-7417
1031,-29690,-7161
1031,-29690,-7161
1287,-29690,-7929
1031,-29946,-7929
775,-30202,-8185
519,-30714,-8185
519,-30714,-8697
519,-30970,-8953
263,-30970,-8953
519,-30970,-9209
7,-30714,-9209
-505,-31227,-8953
-249,-30971,-8697
-249,-31227,-8953
-505,-31227,-9209
7,-30970,-9465
263,-30970,-9209
263,-30970,-9209
-249,-30971,-9465
-761,-30971,-9465
-761,-30971,-9209
-505,-31227,-9465
-505,-31227,-9977
-249,-31483,-9721
7,-30970,-9721
-505,-30971,-9977
-1273,-31483,-9465
-1273,-31739,-9465
-1017,-31995,-9721
-1273,-32251,-10745
-1273,-32507,-11001
-1273,-31739,-10489
-1273,-31739,-10745
-1017,-31739,-11001
-1017,-31739,-11257
-1273,-32507,-11257
-1273,32261,-11513
-1529,32517,-11513
-1273,32261,-11257
-1529,32517,-11001
-1529,32517,-11257
-2041,32261,-12281
-2297,32005,-12025
-2041,32261,-11769
-2041,31749,-11257
-2041,31493,-11001
-2297,31493,-11513
-2553,31749,-12281
-2297,31749,-12281
-2041,31493,-12025
-2297,31237,-11513
-2297,31749,-11513
-2041,31749,-11513
-2041,31749,-11513
-2297,32005,-11769
-2041,-32763,-11257
-761,-31227,-10489
775,-29690,-8697
1031,-29690,-6905
1031,-29946,-5625
1543,-29434,-4857
1543,-29178,-4601
2311,-27642,-4345
3079,-26874,-4345
2823,-26618,-6137
2823,-26618,-8441
2823,-26106,-9977
2567,-25850,-10489
2055,-25850,-10233
1799,-27130,-10489
1287,-28410,-10745
263,-30458,-10489
-1017,-32763,-10745
-2809,30725,-10489
-3321,29701,-10489
-3065,29445,-11001
-3065,29445,-11513
-3065,29445,-11769
-3065,29701,-11769
-3065,29701,-11769
-2809,29701,-11513
-2809,29445,-12537
-3065,29445,-12793
-3065,29445,-12793
-2553,29701,-12025
-2297,29701,-12025
-2809,28933,-12281
-3065,28933,-12793
-3065,29189,-12537
-2809,29189,-12537
-2809,28933,-12793
-3065,28933,-12793
-3065,29189,-12281
-2809,29189,-12025
-2809,28933,-11513
-3065,28933,-11513
-3065,29189,-11001
-3065,29189,-8953
-3577,29189,-5881
-3833,29701,-3577
-2809,31237,-4345
7,-27898,-13817
7175,-13562,28423
9991,-8954,19719
22791,5894,-28664
26630,5382,20488
23558,-8442,19719
13830,-27130,-31737
4102,29702,-11513
-762,29701,7431
-505,30725,21511
263,30470,30983
-249,30469,-25593
-2041,30469,-17657
-2553,30725,-12793
-2553,28421,-11769
-3065,27653,-11513
-4089,27653,-9721
-4089,28165,-8441
-3833,27653,-8441
-3833,27397,-8185
-3833,27397,-7417
-4601,27397,-6649
-4601,27653,-6905
-4345,27653,-7417
-4601,26885,-7417
-4857,27141,-6393
-4601,27397,-6137
-4345,27909,-6137
-3833,28165,-6393
-3833,28165,-6393
-3577,28421,-6649
-3321,28421,-6393
-2553,28421,-5369
-2809,28677,-5369
-2809,29189,-5369
-2553,29189,-4857
-2553,29701,-4345
-2553,29701,-3833
-1529,29957,-3577
-1017,30725,-2809
-505,31493,-2041
-505,31749,-1017
7,32006,-1017
263,32006,-249
263,32518,1031
520,-32250,1799
776,-32250,2311
1544,-31994,3079
1800,-31482,3591
1800,-31226,4103
2568,-30970,4103
3080,-30970,4615
3080,-30714,4615
2824,-29946,4871
3336,-29434,4871
3592,-29434,3335
4104,-28922,3079
4104,-28410,3079
4360,-28154,3079
4360,-27898,1799
4104,-27898,519
4104,-27642,7
4104,-27642,-505
3591,-27642,-1785
3591,-27386,-3321
3591,-27642,-4345
3335,-28666,-4857
3591,-29178,-5369
3591,-29178,-6393
2567,-29178,-6905
2567,-28922,-6905
2823,-28922,-6905
2567,-29690,-7929
2055,-30458,-8697
1287,-30458,-8697
1287,-30714,-8441
1543,-31482,-8441
1287,-31738,-8441
775,-31738,-8441
7,-31738,-8441
7,-31482,-8697
775,-31738,-8441
1031,-31738,-8441
775,-31738,-8697
775,-31738,-8697
1031,-31738,-8441
1031,-31738,-8441
775,-31482,-8441
1031,-31226,-8185
1543,-30970,-8185
1543,-30714,-8441
1287,-30970,-8441
1287,-31226,-8441
1799,-30970,-8441
1543,-30970,-8953
1287,-30970,-9209
1543,-30714,-9209
1799,-30714,-9209
2311,-30970,-8441
2055,-31226,-8953
1799,-30970,-8697
1799,-30970,-8697
1543,-31226,-8953
1031,-31738,-8953
1031,-31738,-8697
1031,-31738,-9465
775,-31738,-10233
519,-31738,-10233
519,-31738,-9977
775,-31738,-9977
775,-32506,-9721
775,-32506,-9465
519,-32250,-9465
263,-32250,-9977
263,-32506,-10489
519,-32762,-10489
519,-32762,-9977
519,-31994,-10233
263,-31226,-9465
519,-30714,-9209
1799,-30202,-7673
2567,-29178,-5369
2311,-28922,-4089
2311,-29178,-3833
2567,-28154,-3065
4103,-25594,-2041
5127,-24314,-2297
5127,-24570,-3065
5383,-24826,-7417
4871,-24826,-9721
4615,-24570,-10233
4359,-24570,-10489
4359,-25594,-11001
4103,-26618,-11001
3591,-28922,-9977
1031,-30970,-9721
7,-32250,-9721
263,32006,-10745
7,30982,-11257
-1017,30725,-11257
-1017,30725,-11001
-761,30725,-11257
-249,30981,-11513
7,30982,-11257
-505,30725,-11513
-761,30981,-11513
-761,30469,-11769
-1017,29957,-12025
-505,30725,-12025
-761,30981,-12025
-761,30981,-11769
-1017,30213,-11769
-1273,29957,-12025
-1017,29957,-12025
-1273,30213,-12025
-1017,30469,-11769
-1017,30469,-11513
-1273,30213,-11769
-1273,30469,-11257
-1273,30725,-10233
-1529,30469,-9721
-1785,29701,-7417
-2041,30213,-4345
-2041,31749,-2041
263,-30714,-4345
5127,-23034,-18425
12039,-7674,21511
20487,5126,-8440
26886,8454,32264
28934,2054,21000
23814,-14842,23559
13318,-29946,-24825
4102,30982,-3577
1286,30726,12551
1799,30982,24071
2823,32262,-31481
1799,32518,-21753
1287,-32762,-18937
-505,30469,-12281
-1273,29445,-11769
-1529,28933,-10489
-1529,28677,-8953
-1529,28933,-8953
-1529,28421,-8697
-2297,28165,-7161
-2553,28165,-6393
-2553,28165,-6393
-2553,28421,-6905
-3065,28421,-6649
-2809,28421,-6137
-3065,28165,-6393
-2553,28421,-6393
-1529,28933,-6137
-1529,28933,-6137
-1529,28677,-5369
-1785,29189,-5113
-1273,29445,-4857
-249,30213,-4857
-249,29957,-5113
-505,30213,-4601
-249,30981,-4089
263,30726,-3833
1031,30726,-3833
1543,31494,-2553
1543,-32762,-1785
1799,-32506,-1785
3079,-32250,-1273
3335,-32250,-249
3335,-31482,1287
3848,-31226,2311
4360,-30970,2311
4872,-30714,3079
4616,-29946,4359
4360,-29178,4615
5128,-28410,4871
6152,-28666,4871
6152,-28666,4871
6152,-27898,4871
5896,-27898,4871
5896,-27898,4615
6152,-27642,4615
6152,-26874,3079
6152,-26106,2311
6408,-26106,1799
6152,-26106,775
6152,-25850,263
6408,-26618,-1785
6151,-26618,-2041
4871,-27130,-3065
3847,-27898,-4089
4103,-27642,-4601
3847,-28154,-6137
3591,-28922,-6393
3335,-28922,-6905
2567,-29178,-7417
2567,-29434,-7673
2567,-29946,-7929
1799,-30202,-8441
1287,-30970,-8953
1287,-30970,-8697
1543,-30714,-8697
1799,-30458,-8953
1799,-30970,-8953
1543,-31738,-8697
1543,-31738,-8441
1799,-31482,-8697
2055,-30970,-9209
1543,-30970,-9209
1543,-30970,-8953
1543,-31226,-8953
2311,-30714,-9209
2311,-30970,-9209
2055,-30714,-8953
2055,-30714,-8953
2055,-30970,-8953
2311,-30458,-8697
2311,-30202,-8953
2055,-30714,-8953
2567,-30714,-8953
2311,-30970,-8697
2567,-30714,-8953
2567,-30714,-9209
2055,-30714,-9209
2311,-30714,-9209
2311,-30970,-8953
2311,-31226,-8697
2055,-31482,-8697
2311,-31226,-8953
1799,-31226,-9721
1543,-31482,-9977
1543,-31482,-9977
1543,-31738,-10233
1543,-31482,-10233
1543,-31994,-10489
1543,-32250,-10233
1799,-32250,-10233
1543,-31994,-10233
1799,-31994,-10745
1799,-31738,-11513
1543,-31738,-11769
1287,-31738,-10745
1799,-30458,-9721
3079,-29690,-8441
3335,-28410,-6905
3079,-28154,-5369
3335,-28154,-4601
4103,-28410,-4089
4359,-25850,-4345
5127,-24570,-4345
5127,-24826,-5113
5383,-24826,-6649
5383,-24570,-9209
4359,-25082,-11001
4359,-25082,-11257
4359,-25338,-10745
4103,-26362,-10489
4103,-28154,-10233
2055,-30714,-10489
263,-32250,-10745
-249,31749,-10489
-249,30725,-11001
-761,30213,-11513
-761,30469,-11513
-1017,29957,-11257
-1017,29957,-11769
-761,29701,-12537
-1017,30469,-12537
-249,30469,-12281
-249,30469,-12281
-249,30469,-12537
-249,29957,-12537
-249,29701,-12537
-249,29957,-12281
-249,29957,-12025
-505,29701,-12025
-505,29701,-11769
-761,29701,-11769
-1017,29957,-12281
-1017,29957,-12025
-761,29957,-11769
-505,30981,-12281
-505,-32507,-16377
-1017,-30971,-25081
-761,-28155,28167
775,-22266,14599
2311,-16378,-1017
4358,-11770,-18425
4870,-10234,-24569
9734,4358,9992
15366,12294,-2808
20485,11526,-6392
23301,3334,264
22790,-9978,18951
18694,-23546,-22265
11782,-31994,519
6407,31238,16391
4103,30726,28423
3079,31238,-27641
2055,30982,-18937
519,30726,-13561
-761,28933,-8697
-1017,27909,-5369
-1017,27909,-4089
-1273,27909,-4089
-1273,27397,-4089
-1529,27141,-2809
-1529,27141,-761
-1529,27653,-249
-1273,27397,-249
-1529,26885,-249
-1273,26629,1031
-1784,26629,2055
-2040,26885,2055
-1528,26629,2055
-1016,26885,2055
-504,26629,2823
-504,26629,3847
-760,26885,4359
-504,26629,4103
-504,27141,6151
-504,27397,7431
-504,27397,8199
8,27398,8967
776,27910,10247
1288,28422,12039
1288,28422,13575
1288,28166,14599
2056,29190,15623
2312,29446,18183
2056,29446,19719
2568,29190,20487
3592,29446,21767
3592,29958,23303
3592,30982,24839
4104,30726,25607
4360,30726,25351
4616,31238,26631
4616,31494,27143
4872,32262,26887
5128,32262,25607
5640,-32762,24327
5640,-31994,23047
5640,-31994,21767
5896,-31482,19463
5640,-31226,17415
5640,-30970,14855
5384,-30202,13063
5128,-29178,9735
5128,-29434,6407
5128,-29434,4359
5128,-29434,3079
3848,-29178,263
3336,-29946,-1529
3335,-30714,-2809
3335,-30458,-3577
2567,-30458,-4601
2567,-30714,-6137
2567,-30714,-6905
2311,-30458,-6905
2311,-30714,-7673
2055,-31226,-8697
2055,-31482,-8697
1799,-31226,-8697
1543,-30714,-9721
1799,-29434,-9465
2055,-28666,-9465
2311,-27642,-9721
3079,-26362,-8953
3847,-25594,-8185
3591,-25850,-6393
3847,-25850,-5625
3847,-25594,-5625
3591,-25850,-5625
3847,-26874,-4857
4871,-26874,-3577
5639,-27130,-1785
4871,-28410,-249
4615,-28666,263
4616,-28922,263
4616,-28666,-761
4359,-28922,-2553
3079,-30714,-4601
2311,-31738,-5625
2055,-31482,-6137
2055,-31226,-6649
1799,-31482,-7417
1031,32518,-8185
1031,32262,-8441
1031,32262,-8953
1287,32518,-9465
1031,32006,-10489
775,31750,-10745
263,31750,-10489
7,32006,-10745
-249,32005,-11257
-249,32005,-11257
-249,31493,-11257
7,31750,-11257
7,32006,-11769
-249,32005,-12537
-249,31237,-12281
7,31494,-12281
-249,31493,-12025
-249,31237,-12025
-505,30725,-12281
-505,30469,-12025
-249,30469,-11769
-249,30725,-10233
-1273,30469,-7417
-1273,31749,-3833
-761,-32251,-3577
1799,-28154,-12537
3079,-25594,-17401
15879,1030,1288
24327,10246,-29688
29190,10246,16648
29446,6,11528
21510,-19450,24071
11526,-31482,-19449
4614,31494,2311
2311,31238,17671
2823,32006,28423
2823,-32506,-28409
1031,32518,-20217
-249,32005,-14841
-761,30213,-13305
-1273,29701,-12793
-1273,29445,-11513
-1017,29701,-11001
-1529,29445,-11001
-2041,29189,-11001
-1785,29189,-9721
-1529,29189,-8953
-1529,29445,-8441
-1529,29189,-8697
-1785,28677,-8953
-2297,28933,-8441
-2809,28933,-8185
-3065,28677,-7929
-2553,29189,-7929
-2041,29701,-7673
-2041,29701,-7161
-1785,29701,-7161
-1529,29957,-7417
-1273,30213,-6649
-1273,30469,-5881
-1017,30469,-5625
-249,31237,-5881
263,31494,-4857
775,31750,-3833
1031,31494,-3321
775,32006,-2809
1031,-32762,-2041
1287,-31994,-1017
1799,-31994,519
2568,-31482,519
2824,-30458,519
3848,-29946,1287
4104,-29946,2311
4360,-29690,2311
4360,-29178,2567
4104,-28666,2311
4104,-28666,2055
4616,-28410,1287
5128,-27642,775
4872,-27642,-249
5127,-27898,-1529
4871,-27898,-2041
4359,-27642,-3065
4615,-27642,-4601
4103,-27898,-5881
3335,-27898,-6649
2823,-27898,-7673
3079,-28922,-8441
3079,-29178,-9465
2055,-29434,-9977
1543,-29434,-10489
1031,-30458,-11257
519,-31482,-12025
-249,-31739,-12281
-249,-31739,-12793
-249,-31739,-13305
-249,-31739,-13305
-249,-32763,-13305
-1017,32517,-13305
-1273,32261,-13305
-1529,32005,-14073
-1529,32005,-14073
-1785,32261,-13561
-1529,32005,-13561
-761,32005,-13305
-761,32517,-13049
-1785,32261,-13049
-1785,32005,-13049
-1529,32005,-13305
-1785,32005,-13305
-2297,31749,-13049
-2297,31493,-13049
-2297,31749,-13305
-2041,32005,-13305
-2297,31749,-13049
-2297,32005,-13049
-2297,31493,-13817
-2297,31237,-14073
-2297,31749,-14329
-2041,32005,-14329
-2041,32005,-14073
-2297,31749,-13817
-1785,31493,-14329
-1785,31493,-14329
-2041,31237,-14585
-2809,31237,-14841
-3065,30981,-14841
-3065,30981,-15097
-2809,30981,-14841
-3065,31237,-15353
-3577,30469,-15865
-3833,30213,-15609
-3833,30213,-15609
-4345,29957,-15609
-4345,29701,-15865
-4089,29445,-15865
-4089,29445,-15865
-4345,29445,-15609
-4345,29701,-15609
-4601,29701,-16377
-4345,29701,-16889
-4345,29189,-16633
-4601,28933,-16633
-4857,29189,-16889
-4857,28933,-16889
-4857,28933,-16633
-4601,29445,-16633
-4601,29701,-16889
-4857,29701,-16633
-4857,28421,-16633
-4601,28421,-16633
-4601,28933,-16889
-4857,30213,-15865
-4345,31237,-15097
-3065,31749,-13305
-2041,32517,-11769
-2041,-32507,-11001
-2553,-32507,-10233
-2553,-31995,-9209
-1529,-29947,-9209
-1273,-28667,-9465
-1273,-28411,-11257
-1273,-28411,-13049
-1273,-28155,-15097
-1273,-28411,-16121
-1785,-28411,-16121
-2553,-29691,-16377
-2553,-30715,-16121
-2553,-32507,-15865
-3833,31493,-15609
-5369,29701,-15865
-5625,28677,-16633
-5625,28165,-17401
-5369,28165,-17145
-5369,27909,-17145
-6393,27653,-17401
-6137,27653,-17657
-6393,27909,-17401
-6393,27909,-17913
-6137,28165,-17913
-5369,28165,-18169
-5881,27397,-18169
-6137,27653,-17913
-6137,28165,-17913
-6137,27909,-18169
-6137,27653,-18169
-5625,27909,-17913
-5625,28165,-17913
-5369,28165,-18681
-5625,28421,-18425
-5625,28421,-17913
-5625,27653,-17401
-6393,27653,-17401
-6649,27653,-17401
-6393,27909,-16121
-6137,27909,-13305
-6905,28933,-10233
-7161,30981,-10489
-5881,-29947,-19705
-2553,-20475,26887
4359,-5114,-1785
6918,6,-10744
17158,7942,12296
18950,2310,3848
14342,-15610,13063
6918,-30458,-30969
-250,31237,-8953
-3834,30725,6919
-3577,30469,18951
-2297,30469,28679
-2553,30725,-28153
-4345,30213,-22521
-5369,28933,-19449
-5369,26885,-17657
-5113,27141,-16377
-5113,28677,-16121
-6137,28933,-15865
-5881,27397,-15097
-5881,26373,-14329
-6649,26629,-13561
-7417,26373,-13561
-7417,26373,-13305
-7417,26117,-13561
-7673,26117,-13305
-7417,25861,-13049
-7161,26373,-13049
-6905,26373,-13305
-6649,27397,-13305
-6649,27397,-12793
-6137,27397,-12537
-5881,27397,-12281
-5369,27653,-11769
-5625,27653,-11769
-5369,27909,-11257
-4857,28933,-10745
-4345,28933,-10489
-4089,29189,-9465
-3833,29957,-8185
-3321,30469,-7417
-2809,30725,-6905
-2553,31237,-5625
-2553,31749,-4857
-2041,32517,-3833
-1017,-32507,-2553
-505,-32251,-2041
7,-31482,-505
519,-30970,263
1032,-30970,775
1288,-30458,1287
1544,-30202,2055
1800,-29690,3079
2312,-29946,2823
2312,-29946,2823
2312,-29690,2823
2568,-28666,2311
2824,-28154,1799
2824,-27898,1031
2824,-27898,519
2312,-28154,-249
1799,-27898,-2041
1543,-27898,-3065
1799,-28154,-4345
1799,-28154,-6137
1543,-28410,-7673
1031,-28154,-8953
-505,-28667,-10233
-249,-29947,-11001
7,-29690,-12025
-1017,-29691,-12793
-1273,-29691,-13561
-1273,-29691,-14329
-1017,-30203,-15097
-1273,-30971,-15609
-1017,-30715,-15609
-2041,-30971,-15865
-2297,-30971,-15865
-1785,-31227,-16121
-1785,-31739,-16121
-1785,-31483,-15865
-1785,-31483,-16377
-2553,-32251,-16633
-2809,-32251,-16633
-2809,-31995,-16633
-2809,-31483,-15865
-2553,-31739,-16121
-2553,-31739,-16121
-2041,-31483,-15865
-1529,-31483,-16121
-1273,-31739,-15353
-1273,-31995,-15353
-2553,-31995,-15097
-2553,-32251,-15097
-2041,-31227,-14841
-1785,-31227,-14841
-1529,-30971,-15097
-2041,-30971,-15097
-2041,-30971,-15609
-1785,-31227,-15353
-2041,-31483,-15353
-2041,-31739,-15353
-1785,-31739,-15353
-2297,-31995,-15353
-2553,-32251,-15609
-2297,-31995,-15353
-2553,-31995,-15609
-2297,-32763,-16121
-2297,-32763,-16377
-2553,-32763,-16377
-2809,-31995,-16633
-2041,-31995,-16889
-1529,-30971,-15865
-505,-28923,-13817
7,-28154,-12281
775,-28154,-11513
775,-28154,-9977
519,-27130,-9465
1031,-26362,-9209
1799,-25338,-9721
2311,-25082,-12025
2311,-24826,-14329
1799,-24826,-15353
1543,-24570,-17145
1031,-24570,-17913
1031,-24570,-17657
775,-25594,-17401
519,-27642,-17657
7,-28666,-17657
-2041,-31483,-16889
-3065,32005,-16889
-3065,31237,-17657
-3065,30725,-18425
-3321,30469,-18937
-3321,30469,-18681
-3577,30725,-18681
-3833,30725,-18937
-3577,30469,-19193
-3577,30469,-19449
-3577,30469,-19705
-3065,30469,-19961
-2809,30213,-19705
-3065,30213,-19449
-4089,30213,-19193
-3833,29957,-19193
-3833,29701,-19193
-3833,29957,-18937
-4601,29957,-18937
-4345,29701,-19193
-4089,28933,-19193
-4345,28933,-18937
-4601,29189,-18937
-4857,29957,-19193
-4857,30469,-18937
-4857,30725,-16633
-4601,30725,-13305
-5369,-32507,-12537
-5625,-30459,-18681
-4601,-25339,31751
7,-14330,4615
6663,774,-28920
14342,8454,8712
20230,9734,-8184
20741,262,-6392
15877,-16890,12039
8966,-28154,-26361
1798,-31994,-2809
-1530,31749,12039
-1273,31749,21767
-1785,31749,30471
-2553,30981,-26617
-3321,30213,-20729
-3577,28933,-17913
-3321,28421,-16633
-3833,27909,-15097
-4601,27909,-15097
-4857,27653,-14841
-5113,27397,-13817
-5113,27397,-12793
-4857,27397,-12537
-4857,27397,-12537
-4601,28165,-12537
-4601,28165,-11513
-4345,28165,-10489
-4345,27397,-10489
-4601,27397,-10233
-4601,27653,-10233
-4345,27909,-10233
-4089,28165,-10233
-3833,28165,-9977
-3321,28165,-8953
-3065,28677,-7929
-2809,29189,-7161
-2553,29189,-7161
-1785,29701,-6137
-2041,29701,-5113
-2041,29957,-4089
-1017,30213,-3321
-505,30981,-1529
-505,31493,7
8,31238,1287
1032,32006,2567
1032,32262,3591
776,32518,4359
1544,-31738,6663
2568,-31482,7687
3080,-30714,8199
3080,-30714,9479
3592,-29946,10503
3848,-30202,10759
3848,-29946,11015
3592,-29434,11271
3848,-29178,11271
4104,-28666,11271
4872,-28154,10759
4616,-27898,10247
4616,-27898,8967
4616,-27898,7431
4616,-27898,5639
3848,-27898,4103
3592,-27898,2311
3592,-28410,775
3336,-29434,-505
2055,-30458,-2809
1287,-30458,-3833
1031,-30202,-4857
1287,-30970,-6137
1543,-31482,-7417
519,-31226,-7929
263,-31226,-8441
519,-31482,-8953
1031,-31482,-9465
519,-31738,-10233
-249,-31995,-10489
-249,-32251,-10489
7,-32250,-11001
7,-32250,-11257
263,-31994,-11257
263,-32506,-11001
519,-32250,-11001
519,-32250,-11257
519,-32506,-11257
775,32518,-11513
519,-32762,-11257
7,-32762,-10745
263,32518,-10745
263,32518,-11001
519,-32506,-11001
519,-32506,-11001
775,32518,-10489
775,32518,-10233
-505,32517,-10489
-505,-32251,-11001
7,-32250,-11001
775,-32506,-11001
775,-32506,-10489
775,-31994,-10233
775,-31482,-10745
775,-31738,-11513
775,-32250,-11513
1031,-32506,-11257
775,-32250,-11257
7,-31994,-11513
-505,-32507,-11257
-249,-32507,-11513
-505,32261,-11513
-505,32261,-11769
-249,-32507,-11769
-249,-32251,-12537
7,-32250,-12537
263,-32250,-12281
263,-31738,-11769
775,-29946,-10233
1799,-28922,-8697
2567,-28666,-7417
2567,-28666,-6137
2567,-28154,-4857
2823,-27130,-4345
3591,-26106,-4345
4615,-24314,-5369
4615,-24314,-6905
4359,-24058,-9465
3847,-24058,-11257
3335,-24314,-12281
3079,-24570,-12537
3079,-24826,-12281
3079,-26618,-12537
2823,-28666,-12537
1031,-30458,-12025
-761,-31995,-12281
-1273,31237,-12281
-1273,30469,-12793
-1273,30469,-13305
-1273,30725,-13305
-1273,30725,-13049
-1017,30725,-13049
-1017,30725,-13561
-1273,30981,-13561
-1273,30725,-13561
-1273,29957,-13817
-1273,29701,-13817
-2041,29701,-13305
-1529,29957,-13305
-1273,29957,-13561
-1017,30213,-13561
-761,30213,-13305
-761,30213,-13305
-1017,29957,-13049
-1017,30213,-13049
-1273,30213,-12793
-1273,30213,-12793
-1017,30469,-12537
-1017,30213,-12537
-761,29957,-11257
-1529,30213,-8953
-2041,31493,-5369
-1785,-32763,-5113
-1017,-31739,-11257
2567,-23546,-28409
9479,-8442,8455
18183,4358,-24312
26374,7942,16136
28422,4358,7176
24582,-10746,12807
15878,-26106,-32249
7430,-31994,-7929
2566,31750,11015
2311,32006,23559
2311,32262,26375
1543,32518,-24825
775,32518,-16889
-249,30981,-13305
-1529,29701,-12537
-1785,28933,-11001
-1529,28933,-9465
-1017,28933,-8953
-1017,28933,-8953
-1529,29189,-8953
-2553,28677,-7929
-2809,28677,-7161
-2297,28421,-6905
-2297,28421,-6905
-2553,28677,-7161
-2809,28677,-6905
-1785,28421,-5625
-1017,28421,-5881
-1017,28933,-6137
-1017,29957,-6137
-1017,29701,-5881
-761,29189,-5113
-761,29189,-4345
-1017,29189,-4345
-1017,30213,-4601
-761,30469,-4345
519,30726,-3065
1031,30982,-2297
1031,31494,-2041
1031,32262,-1273
1799,32518,7
2312,32262,1287
2312,-32250,2055
2824,-31226,3079
3592,-31226,4359
4360,-30970,5895
4616,-30202,6151
4616,-29434,6919
5384,-29178,7943
5896,-29434,8711
5896,-29178,8967
6152,-28410,9223
6920,-27642,9479
6920,-27386,9223
6664,-27386,9223
6664,-26874,9223
6920,-26618,8711
6920,-26362,8199
6920,-26106,6919
6920,-25594,5639
6920,-25338,5383
6920,-25338,3079
6152,-25850,1799
5640,-26362,519
4872,-26874,-761
4871,-27386,-2041
4359,-27642,-2553
3847,-27898,-3833
3079,-28410,-4857
2823,-28154,-4857
3591,-28666,-5625
3591,-29434,-6905
3079,-29946,-7161
2055,-30202,-7161
1543,-30714,-7673
1543,-30458,-7929
1287,-30970,-7929
1543,-31226,-7673
1543,-30714,-7673
1031,-30458,-8441
263,-30970,-8697
519,-31482,-8185
1031,-31738,-8185
1543,-31482,-7929
1287,-31226,-7929
1287,-31226,-7673
1799,-31226,-7673
1799,-31226,-8441
1543,-30970,-8697
1543,-30714,-8697
2311,-30714,-8697
2311,-31482,-8441
2311,-31226,-8441
1543,-31226,-8441
1543,-31482,-8697
1543,-31482,-7929
2311,-31226,-7929
2055,-31226,-8185
2055,-31482,-8185
2055,-31482,-7929
2311,-31482,-7929
2311,-31226,-8441
1799,-31738,-8953
1543,-31994,-8953
1543,-32250,-9209
2055,-32250,-9209
2055,-31994,-9209
1543,-32506,-9209
1031,32262,-9209
775,32518,-9465
775,32518,-9465
1287,32262,-9209
1287,-32762,-9721
1287,-32506,-9977
1287,-31738,-9977
1031,-31226,-8697
2055,-30202,-6905
3079,-28922,-5369
3335,-28410,-4345
3591,-28410,-1017
3847,-26362,3079
4616,-23802,5895
4872,-22778,5383
5640,-22266,-3577
6151,-22010,-20217
7943,-21498,25095
9991,-19450,2567
12551,-17146,-20217
14854,-13562,23303
16390,-5882,775
17158,-1018,-18169
17157,518,-30968
15877,518,28936
14341,-4858,32007
12549,-14074,-22521
12293,-17658,-17657
7173,-30202,7943
1798,30470,22791
-3322,28165,-28921
-6394,27397,-15353
-7930,26629,-2809
-9210,27909,7687
-8185,30469,16903
-5113,31237,26119
-1017,32005,-30457
1031,32262,-23033
1287,31750,-15609
1287,30214,-8441
519,28422,-2297
-505,27909,2311
-1784,28421,4871
-2296,28165,7431
-2040,28165,9735
-2040,27653,10759
-2296,27397,11527
-3064,26885,13831
-3064,26885,15879
-3064,26629,17415
-3064,26629,18951
-3064,26629,20487
-3064,26373,21511
-3064,26629,25095
-3320,26629,26887
-3320,26373,28935
-3064,27141,32519
-3064,27653,-30201
-3064,27653,-27641
-3064,27653,-25081
-3064,27397,-22265
-3064,27397,-19449
-2552,27397,-16889
-2296,28165,-14585
-1784,28165,-12025
-1016,28421,-9465
-760,28677,-7417
-1016,28933,-6137
-1016,29445,-4089
-504,29445,-2553
776,29958,-2041
1032,29958,-2297
1032,30214,-1529
1544,30982,-1529
2312,31238,-2553
3080,32006,-4345
3080,-32250,-7161
3080,-31994,-7929
4872,-31226,-12281
5384,-30202,-16121
5384,-29690,-21241
5384,-28922,-24825
5384,-27898,-28409
5640,-27386,-32505
6408,-26874,27911
7176,-26106,23559
7176,-26106,20231
7432,-25850,16391
7176,-25594,12039
6664,-25850,8967
6152,-26106,7175
5896,-27386,4871
5128,-27898,2567
5128,-27642,519
5128,-27386,-761
4615,-28154,-1785
4359,-28410,-3321
4359,-28922,-3833
3847,-28922,-3577
3591,-28922,-3833
3079,-29946,-4857
3079,-30458,-5881
3079,-30202,-5881
2567,-29946,-5881
2311,-30458,-6393
2311,-30714,-6905
2055,-30714,-6905
1799,-30458,-6649
1543,-30970,-6393
1799,-31226,-6393
2055,-31226,-6649
1799,-31226,-6905
1799,-30970,-6905
1031,-31226,-7161
1287,-31226,-7417
1031,-30970,-7417
1543,-31482,-7673
1799,-31482,-7673
1287,-31482,-7417
519,-31738,-7417
519,-31994,-7929
1031,-31994,-8697
1543,-31738,-8697
1287,-31994,-8697
1543,-32250,-8185
1543,-32250,-8185
1287,-32762,-9209
1287,32518,-9465
1543,32518,-9209
1543,-32506,-9209
1287,-32250,-9977
1031,-32250,-10233
1031,32262,-10233
1031,32006,-9977
775,32518,-9977
1287,-32762,-9977
1287,-32762,-10745
775,32518,-11001
519,32006,-10745
519,31750,-10489
775,32006,-10745
1031,32006,-11001
1287,32518,-11257
1031,-32762,-11257
775,-32762,-10745
775,32518,-10233
519,32262,-10489
519,31750,-10745
263,32006,-10745
263,32006,-11001
1031,32262,-11001
775,32006,-10745
7,32006,-11257
-249,32005,-11513
7,31750,-11001
1031,31750,-10745
1031,32006,-10489
519,32006,-10489
263,32006,-10233
263,31750,-10489
775,31750,-11001
1031,32006,-11001
1031,32006,-11257
775,32262,-11001
1031,32262,-10489
1031,32006,-10745
1031,32262,-10489
1031,-31738,-9977
1287,-30458,-8441
3079,-29946,-7161
3335,-29946,-6393
3079,-29946,-5369
3335,-29434,-4601
3847,-27386,-4345
4103,-26106,-4089
4615,-25338,-4345
5127,-25082,-5881
5127,-25082,-7161
5127,-25338,-10745
4871,-25338,-11257
4871,-25338,-10745
4615,-25594,-10745
3847,-27642,-10745
2823,-30202,-10233
1543,-31482,-9977
519,-32506,-10233
263,32262,-10489
519,31494,-11257
775,31494,-11513
263,31238,-11257
519,31750,-11257
519,32006,-12025
775,31494,-12025
775,30726,-11769
519,30982,-11769
519,30982,-12025
519,30726,-12025
519,30726,-11257
775,30982,-9209
7,30982,-5881
-505,30725,-3321
-505,30981,-3577
-505,31493,-4345
1287,-32762,-22777
3847,-31738,26375
6919,-30458,11015
9479,-28666,-3065
11270,-26874,-16377
13062,-24058,-29177
15110,-19450,22791
17414,-12794,6663
19462,-7674,-7673
21253,-3834,-14585
23301,262,-13560
25349,6662,-3064
28421,10758,12040
31238,8710,29448
31494,-250,-18937
27910,-13562,-2553
18950,-24314,13063
10247,-30202,26119
4615,-31738,-30457
2311,-31994,-23033
1287,32518,-15865
-249,31493,-9465
-1529,30469,-4345
-1785,28677,-1017
-2041,28421,263
-3320,28421,1287
-3576,28677,1799
-3576,27653,2823
-3832,27397,3847
-4600,27397,5383
-5368,27397,6151
-5368,26629,6407
-5368,26629,7687
-5368,26629,8455
-5624,27141,8967
-5624,27653,9735
-5880,27397,11015
-5624,27653,12295
-5624,27397,13319
-5368,27397,15111
-5112,28165,16903
-5112,28165,18695
-5368,27909,20487
-4856,28165,22535
-4600,28421,24327
-4600,28933,26375
-4344,28677,28423
-4344,28677,29959
-4344,29445,31495
-4344,29701,-32761
-3576,29957,-30201
-3064,29957,-29689
-3320,29957,-28921
-3832,30213,-27641
-4088,30981,-26873
-3576,30981,-26873
-2808,31237,-27129
-2552,31493,-27129
-2296,32005,-27129
-2040,32005,-27641
-2040,31749,-29177
-1784,32261,-30713
-1784,32517,-31737
-1528,32261,32263
-1528,-32763,29703
-1016,-31739,27399
-248,-31227,24583
1032,-30970,22279
1544,-30202,19207
1544,-29946,16135
2568,-29178,13575
3080,-28922,10759
2824,-28666,8711
2824,-28154,5639
3336,-27898,4615
4104,-27898,1031
3848,-27898,-249
3591,-28154,-2297
3847,-27898,-3833
3847,-28410,-4345
3079,-28922,-5369
3079,-29178,-6393
3335,-28666,-7161
3335,-28410,-6905
3591,-28922,-6905
3079,-29690,-7673
2567,-29690,-8185
2311,-29690,-8185
2823,-29690,-7929
3079,-29690,-8185
2567,-29690,-8185
2311,-29690,-7929
2311,-29690,-7929
3079,-29690,-8185
3079,-30458,-7929
2823,-30458,-7417
2311,-30458,-7161
2311,-30714,-7673
2311,-30202,-7929
2055,-30458,-7929
2055,-30458,-7673
2823,-29946,-7161
2823,-30202,-6905
2823,-30202,-7161
2567,-30202,-7417
2567,-30458,-7161
2311,-30458,-7417
2311,-29690,-7929
2055,-29690,-8185
2311,-29946,-8185
2055,-30970,-7929
2055,-30714,-7417
2055,-30970,-7673
1799,-30970,-8185
2055,-30714,-8441
2055,-30714,-8697
2055,-31226,-8953
2311,-31226,-8953
2311,-31226,-9977
2055,-31482,-9977
1543,-31482,-9721
1799,-31226,-9721
2055,-31226,-9977
2311,-31226,-10489
2311,-31226,-10233
2311,-30458,-9977
3079,-29434,-9209
4103,-28154,-7161
4103,-27898,-5369
4359,-27642,-4601
4359,-27386,-4345
5383,-26618,-3577
5639,-24826,-3321
5639,-24058,-3321
5895,-23802,-4857
6151,-24314,-7417
5895,-24314,-8953
5383,-24570,-9721
5127,-24570,-10233
5127,-24314,-10745
5127,-25338,-10489
4359,-28666,-10745
3079,-31226,-9977
1799,-31226,-9465
1287,-32250,-9721
1031,31494,-10489
1031,30726,-11001
1031,30982,-11257
775,32262,-11513
775,32262,-11769
519,31238,-11769
775,30982,-11513
1031,30982,-11513
775,31238,-11513
519,31238,-11257
263,30982,-11513
263,30470,-11513
263,30726,-11769
519,30470,-11769
1031,30470,-12025
1031,30470,-11769
775,30726,-11513
7,30726,-11513
-505,30469,-11257
263,30470,-10745
263,30726,-11001
519,30726,-11257
519,30470,-10233
-249,30213,-7417
-249,30469,-2809
7,32518,-1529
1543,-29946,-6137
6151,-20986,-19193
14087,-4602,21255
16391,774,11784
28679,9222,-31992
29958,2566,22280
23302,-15354,26887
13318,-30714,-22521
5126,29702,-3321
2310,29702,13063
2311,30982,25863
3079,31494,-30201
3079,32262,-21497
2055,32262,-14841
519,30470,-11257
-249,28677,-10489
-505,28421,-10233
-761,29189,-8953
-1017,29189,-7929
-1017,28933,-7929
-761,28421,-7673
-761,28677,-7161
-1273,28677,-6905
-1273,28677,-6905
-1017,28421,-7161
-1529,27909,-6649
-1785,27909,-6393
-1529,28165,-6649
-1017,28421,-7161
-249,28677,-7161
-249,28933,-6905
-505,29445,-6137
-505,29957,-6393
7,29958,-6393
519,29702,-6393
775,29702,-5113
519,30982,-5113
1287,31750,-5113
2567,31494,-5113
2311,31494,-4857
2311,-32762,-4345
2311,-31994,-3577
3591,-31994,-2297
4103,-31482,-2297
4103,-30458,-1529
3847,-30458,-505
4871,-30202,263
5896,-29946,519
5896,-29434,519
5896,-28922,1543
5896,-28666,2055
6152,-28666,1799
6152,-27898,1543
5896,-27642,1543
6920,-27386,1799
7176,-27130,1287
7176,-27130,519
6408,-26874,-249
5895,-27130,-1273
6151,-26618,-1785
6151,-26618,-2809
6151,-26362,-3833
5895,-26874,-4857
5639,-27386,-5369
5383,-27386,-6137
4615,-27642,-7417
4103,-28410,-8185
3847,-28666,-8185
4103,-28922,-8697
3847,-29178,-9465
3079,-29690,-10489
3079,-29434,-10745
2567,-29690,-10745
2055,-30458,-10489
1799,-30970,-10489
2055,-30970,-10745
2055,-30970,-10745
1543,-31482,-10489
1031,-31738,-10489
1031,-31994,-10489
1287,-31738,-10489
1031,-32250,-10489
775,-32506,-10489
775,-32506,-9721
775,-31994,-9721
519,-32250,-10489
1287,-32250,-10489
1543,-32250,-10233
1287,-31994,-10489
1031,-31738,-10745
1031,-31482,-10233
1031,-31994,-9721
1799,-32250,-9465
1031,-31994,-9465
263,-32250,-9721
519,-32250,-9721
1031,-31994,-9465
1287,-31738,-9465
1287,-31738,-9465
775,-31738,-10233
775,-31994,-10233
1031,-32250,-9977
1031,-32250,-9977
775,-31738,-10233
519,-31738,-10745
775,-31738,-10489
1031,-32250,-10489
1031,-32250,-10489
519,-32506,-10233
519,-32250,-10745
263,-32250,-11513
775,-31994,-11513
1031,-31994,-11769
1031,-31994,-11257
1031,-32250,-11257
1031,-31482,-11513
1031,-30458,-9977
2055,-29178,-8441
2567,-29434,-6393
2823,-29178,-5625
2823,-28410,-4857
3079,-27898,-4345
3847,-27130,-3833
4359,-26362,-4089
4103,-25850,-6137
4103,-25338,-8441
3847,-25338,-10489
3847,-25082,-11257
4103,-25082,-11001
3847,-26106,-11513
3079,-27386,-11257
1799,-29434,-11513
1287,-31482,-11001
7,32518,-10745
-1017,31237,-10745
-1785,30725,-12793
-1529,30213,-13305
-1785,30469,-13049
-1529,30213,-12793
-1017,30213,-13049
-1017,30213,-13049
-1017,30469,-13305
-2297,30469,-13305
-2041,30213,-13305
-1273,30213,-13305
-1273,29701,-13561
-1273,29957,-13561
-2041,29957,-13561
-2297,30213,-13561
-2297,29701,-13305
-2297,28933,-13561
-2553,29189,-13817
-2297,29445,-13561
-2297,29701,-13305
-2553,29701,-13561
-2553,29701,-13305
-2553,29445,-13049
-2553,29445,-11769
-2809,29701,-9209
-3833,29701,-6905
-3833,31237,-5369
-1273,-30715,-9209
2823,-22522,-22777
9223,-7162,17159
16391,5126,-13560
22534,7942,28424
24582,2566,16904
19974,-13562,19207
10246,-30458,-29689
2566,29190,-8953
-250,29189,8711
-761,29445,21255
-505,29957,30727
-1273,30469,-25849
-1785,30213,-17913
-2809,28933,-14329
-4089,27397,-14329
-4345,26885,-13305
-3833,27653,-11769
-3577,27653,-11001
-3577,27397,-11001
-4345,27141,-10489
-4601,26629,-9209
-4857,26373,-8953
-4857,26885,-9465
-4601,26885,-9465
-4601,27397,-9209
-4345,27653,-9209
-4089,27653,-9465
-4089,27141,-9465
-3833,26885,-9465
-4345,26629,-8953
-4857,27141,-8953
-4601,27141,-8953
-3833,27397,-8441
-4089,27397,-8441
-3577,27909,-8697
-3065,28165,-8185
-3321,28421,-7417
-3577,28677,-7161
-3321,29189,-6393
-2553,29445,-6137
-2553,29957,-5113
-2553,29957,-4601
-1529,30469,-3321
-1273,31493,-2809
-1017,32005,-1529
-505,32005,-249
-505,32005,263
520,-32506,775
776,-31738,1799
776,-31226,2055
1032,-31482,2311
1288,-31226,2055
1544,-30714,2055
1544,-30458,2311
776,-30458,2311
776,-29946,1287
1288,-29178,263
1544,-28922,-1273
1543,-28922,-1273
1287,-28922,-2297
1287,-29434,-4089
1543,-29946,-5369
1287,-29690,-6137
-761,-30715,-7417
-1529,-31483,-9209
-1529,-31739,-9721
-1273,-31739,-9721
-1785,-32251,-10745
-2297,-32507,-11513
-3065,32261,-12281
-3577,32005,-13049
-3577,32005,-12793
-3833,32005,-13561
-4601,30981,-14841
-4857,30725,-15097
-4857,31237,-14585
-4857,31493,-14329
-4601,31237,-14329
-4857,30725,-14841
-5881,29957,-14841
-5625,29701,-14585
-5369,30213,-14585
-5113,30725,-14329
-4857,30981,-12025
-4857,31749,-7417
-4857,-32507,-2553
-4089,-30971,-2041
-3321,-30203,-11257
-1785,-31483,-29433
1287,-32506,14087
4871,-32506,-10745
5894,-32506,-18937
10246,-25594,7175
12806,-18682,-14585
13829,-15610,32519
15109,-14586,22791
14853,-16122,22023
13573,-20474,28679
12293,-24570,-25593
9733,-27386,-13305
6917,-28154,-1017
5381,-27386,13063
2566,-27898,28935
-1786,-30459,-21753
-4858,-32507,-8185
-6650,31749,4103
-6393,30981,16391
-6137,29701,27655
-5881,29189,-27641
-4601,28677,-18425
-4601,27909,-11769
-6649,27141,-6649
-8697,27653,-2041
-7673,29189,1287
-5880,29957,4103
-5880,29701,6151
-6392,29445,7175
-6648,28933,9223
-6648,29189,10503
-6648,29189,11527
-7672,28677,11527
-8184,28165,11783
-8184,26629,11271
-8440,26373,11015
-8696,27909,13831
-8440,28421,17927
-8440,28677,20743
-8440,27397,22279
-8952,25861,23303
-10232,25605,25863
-11768,26373,27399
-11512,26373,27911
-10744,26629,28935
-9976,26885,30471
-9720,27397,32007
-9464,28421,-32761
-8440,28677,-32761
-7416,28421,-31737
-7672,29189,-30713
-7672,29957,-30713
-6392,30469,-31481
-5880,30469,-31481
-4600,31749,-31481
-4088,-32507,-32505
-3320,-31995,30727
-2552,-31739,29191
-2040,-30971,27655
-1528,-30203,25351
-504,-29435,22023
8,-29690,18439
264,-28666,16391
520,-28410,13319
520,-28410,9735
776,-28666,6407
776,-28922,4103
8,-28410,1543
-504,-28667,-505
-505,-28923,-3321
-249,-29947,-4089
-505,-30715,-4601
-1529,-30971,-6649
-2297,-31483,-8441
-2809,32517,-8697
-3065,32517,-9209
-2809,32005,-9465
-4089,31749,-10745
-4857,31749,-11001
-4857,30981,-10745
-4857,29957,-10745
-5369,29957,-11769
-5369,29957,-12281
-6137,29445,-12281
-6393,29445,-12025
-5881,29701,-12537
-5881,29445,-13305
-6137,28933,-13561
-5625,28933,-12793
-5625,28933,-12537
-6137,28677,-12537
-6649,28421,-12793
-7417,28421,-13305
-7673,28165,-13561
-7417,28421,-13305
-7161,28165,-13305
-7417,27909,-13817
-7417,27909,-14073
-7161,27909,-13817
-7161,27653,-14329
-7417,27653,-14585
-6905,27909,-14585
-6905,27909,-14841
-7161,28165,-14585
-6649,28421,-15097
-6393,28165,-15353
-6137,28421,-15609
-6649,28165,-15609
-7417,27653,-15865
-6905,27653,-16121
-6393,28165,-16121
-6137,28677,-16377
-6137,28933,-16377
-6137,28677,-16889
-6137,28677,-16889
-5881,28421,-16633
-6649,28421,-17145
-6905,28677,-17401
-5881,28677,-17401
-5113,28933,-17145
-5369,28933,-17401
-5113,28933,-17913
-5625,28421,-17657
-5881,28421,-17913
-6393,28421,-17913
-6905,28165,-18425
-6905,27909,-18681
-6649,28165,-18681
-6649,28421,-18937
-6649,28165,-18937
-6905,28165,-18937
-7161,28165,-18681
-7417,28165,-18937
-7673,28421,-19193
-7417,28165,-19193
-7161,27653,-19193
-6905,27653,-19193
-6905,27909,-19193
-6905,28421,-18937
-6905,28421,-19193
-6905,28421,-19705
-6905,28165,-19705
-6905,28165,-19193
-6905,28165,-18937
-6905,28421,-18937
-6905,29445,-19449
-6905,28933,-19705
-6905,28677,-19193
-7673,28677,-19449
-8697,28165,-19449
-8185,28421,-19193
-7161,28677,-19449
-6649,28677,-19705
-6393,28421,-19705
-6649,29189,-19705
-6905,29189,-19705
-6905,29189,-19705
-6905,28677,-19705
-6649,28421,-19449
-6649,28421,-19705
-6905,28677,-19705
-6905,28677,-19449
-6649,28421,-19193
-6649,28421,-19193
-6649,28421,-19705
-6905,28677,-19705
-6649,28933,-19705
-7161,28933,-19449
-7417,28933,-19449
-7673,28165,-19449
-7161,28421,-19705
-7161,28933,-19449
-7161,28677,-19449
-7417,28677,-19449
-7417,28933,-19705
-7161,28933,-19705
-7673,28677,-19449
-7673,28677,-18937
-7417,28933,-19193
-7161,28933,-19193
-7161,28677,-18937
-6905,29445,-19449
-6905,29445,-19449
-6649,29957,-19193
-6137,31493,-17913
-4857,-32763,-16121
-4601,-32251,-14841
-4345,-32251,-13817
-4345,-31995,-12793
-4345,-30715,-12281
-4345,-30203,-12281
-4089,-29435,-12281
-2809,-28155,-13305
-2809,-28155,-15865
-3065,-28411,-17913
-3321,-28411,-18681
-3065,-28155,-18425
-3321,-27899,-18425
-3321,-29947,-18425
-4089,32517,-18169
-5881,31493,-17657
-6905,31237,-17913
-7161,29445,-18681
-6905,27653,-18937
-6905,27653,-19193
-7161,28933,-19449
-7161,29701,-19449
-7161,28421,-19705
-6905,28421,-19193
-6649,28677,-19193
-7161,28933,-19449
-7161,28933,-19449
-6393,29189,-19193
-5625,28677,-18681
-5369,28677,-18425
-6649,28165,-18425
-7673,28165,-18169
-7417,28165,-17913
-7161,27909,-17401
-6905,28421,-14329
-6905,30213,-11513
-7417,31749,-13049
-7417,-30459,-22777
-3833,-22779,24839
2055,-8698,-3321
7942,4102,29448
14854,9222,5384
18438,6918,-4088
19461,5126,-4600
10501,-23290,24327
3334,-31994,-16889
-1274,32005,2823
-2041,32005,16391
-2041,32005,25095
-2809,30469,-32761
-4857,29445,-24825
-5113,29189,-18681
-4857,28677,-16889
-5113,27141,-16633
-6393,27141,-15353
-6649,27141,-14073
-6649,26885,-13561
-6905,26117,-13049
-7417,26117,-12793
-7161,26373,-11257
-6649,26629,-11257
-6905,26629,-11001
-6905,25861,-11001
-6649,25861,-10745
-6649,26373,-10233
-6649,26373,-10233
-6649,26373,-9977
-5625,26373,-9721
-5369,26117,-9209
-5369,26629,-9465
-5113,26373,-9209
-5113,27397,-9209
-5113,27397,-8185
-4857,27397,-7161
-4601,27653,-7161
-3833,28421,-6393
-3577,28421,-5369
-3577,28165,-4345
-3577,28677,-3577
-3065,29445,-3321
-2553,29701,-1273
-2809,29701,7
-2552,29957,519
-1784,31237,1287
-1016,32261,2823
-504,32005,3847
-760,32005,4615
8,32518,5383
520,-32506,6407
776,-32250,7431
1032,-31994,7943
1288,-31738,7943
2568,-30714,8711
2824,-30714,9223
2824,-30202,8967
2824,-29690,8967
3080,-28922,8199
3080,-28666,7943
3080,-28666,7687
2824,-28922,7175
3080,-27898,5895
3592,-27130,4871
3592,-27130,3847
3592,-27642,2567
2824,-27898,775
2824,-27130,-505
2823,-26874,-1529
2311,-27386,-2809
2055,-27642,-4345
1543,-28154,-5625
1799,-28154,-5881
1799,-28410,-6393
1031,-29178,-7417
-249,-29691,-8441
-249,-29947,-8441
-249,-29691,-8697
-249,-29435,-9977
-249,-29691,-10233
7,-30202,-10233
-505,-30459,-10233
-761,-30715,-9977
-761,-30971,-11513
-761,-30715,-11769
-1017,-31227,-11001
-1529,-31739,-10489
-1529,-31483,-10745
-1529,-31483,-11769
-1785,-31227,-11769
-1785,-31227,-10745
-1529,-31227,-10233
-1529,-31995,-10489
-1529,-31995,-11001
-1785,-31995,-10745
-1785,-32251,-10745
-2041,-32251,-10745
-2297,-32251,-10489
-2297,-31995,-10489
-2553,-31995,-10489
-2297,-32251,-10489
-1273,-31995,-10489
-1017,-31739,-10745
-1017,-31483,-10745
-1017,-31739,-11001
-1273,-31995,-11001
-1273,-32763,-11513
-1529,-32507,-11257
-1529,-32507,-11513
-2041,-32763,-11769
-2297,-32763,-11513
-2041,-32763,-11513
-2041,32517,-12281
-2041,32261,-12537
-2041,32517,-12281
-2297,32261,-11513
-2041,31749,-11513
-2297,31749,-11769
-2553,-32763,-12281
-2809,-30971,-12537
-2041,-29947,-11769
-761,-29435,-10745
-505,-28411,-8697
-505,-27387,-6905
-249,-26875,-6137
263,-27130,-5625
1031,-25850,-5625
1287,-24314,-5369
1031,-23290,-6905
1287,-23546,-9721
1287,-23546,-10745
1031,-23290,-12537
775,-23546,-13049
1031,-23546,-12793
1287,-23546,-12793
7,-25082,-13049
-761,-28411,-12793
-2297,-30203,-12793
-2809,-31227,-13049
-3321,-31995,-13049
-4089,31749,-12793
-4345,31749,-12793
-4345,31749,-13817
-4089,32517,-14073
-3833,32517,-14073
-3321,32261,-14073
-3065,32261,-14329
-3065,32517,-14329
-2809,32517,-14073
-4345,31749,-14073
-4601,31749,-14073
-4089,32261,-13817
-4345,32517,-14329
-4345,32517,-14585
-4089,32517,-14841
-4345,32517,-14841
-4345,32517,-14585
-3577,32005,-13817
-4089,32005,-13817
-4345,32005,-14073
-4345,32005,-13817
-4857,32005,-12793
-4857,32005,-10233
-5113,32005,-6649
-5369,-31739,-5113
-4601,-30715,-7673
-1785,-25339,-19961
5127,-10234,19975
14343,4870,-12792
22278,9478,25608
24838,7430,12040
22278,-5370,12295
13062,-22778,28679
3334,-31482,-14585
-1530,-32507,5895
-1785,-31995,20231
-1017,-31227,29447
-1529,-31227,-27385
-2553,-31483,-18937
-3833,-32251,-14073
-4089,32261,-14329
-4345,31237,-13049
-4857,30981,-11513
-4857,30981,-9977
-4601,30469,-10233
-5113,29957,-9977
-5369,29957,-9721
-5113,30469,-8953
-4857,30725,-8953
-5369,30469,-8697
-5369,30213,-8953
-5369,30213,-8441
-5113,30213,-7929
-4601,30213,-7929
-4601,30213,-7673
-4601,31493,-7673
-4089,31493,-7929
-3321,31237,-7929
-3321,31237,-7161
-3577,31493,-6393
-3577,31493,-6393
-3065,32005,-6393
-2553,32005,-5881
-2809,32261,-5369
-2041,-32507,-4345
-1273,-32507,-4345
-1273,-32763,-3577
-1529,-32251,-3065
-1273,-31739,-1273
-505,-31227,7
264,-31226,7
264,-30970,519
776,-29690,2311
1544,-29178,3335
1800,-29178,3335
1288,-28922,3079
1288,-28666,4103
1032,-28410,4615
2056,-27642,4615
3080,-27386,4359
3336,-27130,3847
3080,-25850,3847
3080,-25594,3079
3592,-25594,2311
3592,-25594,1031
3080,-25850,775
2568,-25338,-505
2311,-24826,-1785
2311,-25082,-3065
2311,-25594,-4089
2055,-25594,-4345
1799,-26362,-5625
1031,-27130,-6393
775,-27130,-6649
263,-27386,-7417
7,-27386,-8185
-249,-27899,-8953
-505,-28411,-9465
-761,-28155,-9721
-505,-28411,-9721
-505,-28923,-9977
-1017,-29179,-10233
-761,-29179,-10233
-1017,-29179,-10233
-1017,-29691,-10489
-1017,-29691,-10489
-1017,-29947,-10233
-1273,-29691,-9977
-1017,-29691,-10489
-1017,-29947,-10745
-1017,-29691,-10233
-1017,-29691,-10233
-1017,-29691,-9465
-1017,-29947,-9465
-1017,-29691,-9721
-761,-29435,-9721
-505,-29691,-9721
-505,-29947,-9977
-761,-29947,-9977
-1273,-29691,-9721
-1017,-29691,-9721
-761,-29691,-9721
-249,-29947,-9977
7,-29946,-10233
-761,-29947,-10233
-1273,-29947,-10233
-1273,-29691,-9977
-1017,-29435,-9977
-1017,-29691,-10233
-1273,-30459,-10745
-1273,-30459,-10489
-1273,-30203,-10233
-1017,-30203,-10489
-761,-30971,-11001
-1017,-30971,-11257
-1785,-30715,-11513
-1785,-30715,-11513
-1529,-30971,-10745
-1529,-30971,-10745
-1273,-30715,-10745
-1017,-30203,-10489
-505,-28923,-9721
-249,-27643,-8441
519,-27386,-5881
1031,-27642,-4089
1031,-26874,-4345
1287,-25338,-4345
2055,-24058,-3833
2823,-23546,-3577
3335,-22778,-4345
3079,-22778,-7929
2823,-22778,-11001
2311,-23034,-11001
2055,-23290,-10745
2055,-23802,-11001
1799,-24314,-11001
2055,-26618,-9721
1031,-28666,-9721
-1273,-30715,-9721
-2809,-31995,-10489
-2553,32517,-10745
-2553,32261,-11001
-2553,31749,-11257
-2809,32005,-11513
-2809,32005,-11769
-2297,32261,-11769
-2041,32261,-11769
-2297,32005,-11513
-3321,31493,-11257
-3065,31493,-12281
-2553,31749,-12537
-2809,31749,-12537
-2553,31493,-12537
-2553,31493,-12537
-3065,31749,-12281
-3065,31493,-12281
-3065,31493,-12281
-3065,31493,-12537
-3065,31493,-12025
-2809,31493,-11769
-3065,31493,-11769
-2809,31237,-11001
-3065,31237,-10489
-4601,31237,-8185
-4857,31237,-4601
-3577,32005,-2809
-2041,-30459,-5625
1543,-22266,-19705
8967,-6906,20487
18439,5126,-10744
21254,7942,-19192
26630,4102,18696
21254,-11770,20487
11526,-28410,-28409
2566,30982,-6905
-1530,31237,10759
-1273,32517,23047
-249,-32251,-32505
-761,-32507,-23289
-2553,32517,-15609
-3577,31493,-12537
-3833,30213,-12025
-3833,29957,-11001
-3577,29701,-9209
-3577,29445,-9209
-4345,29189,-9209
-4345,29445,-7929
-4089,29701,-6649
-4089,29701,-6649
-4345,29957,-7673
-4345,29445,-7673
-4345,29189,-6649
-4345,29701,-5369
-4345,30213,-5625
-4089,30213,-6393
-3321,30213,-6649
-3065,30213,-5113
-3577,30213,-4857
-4345,29957,-4857
-3833,29957,-5113
-2809,30725,-5113
-2809,31749,-4857
-2809,31749,-4345
-2809,31493,-4089
-1529,31749,-4089
-761,32261,-2809
-761,-32763,-2041
-505,-32251,-1273
-505,-31995,-761
519,-31226,7
1032,-30202,1287
1544,-29946,2055
1544,-29434,2311
2568,-29434,3591
3848,-28410,4359
3848,-28410,4871
3080,-28154,4871
3336,-27898,4871
3336,-27130,5127
4616,-26618,5127
5128,-26618,5127
5128,-26618,4615
5384,-25850,4359
5128,-25594,3591
4872,-25338,2823
5384,-25338,2311
5128,-24826,775
5384,-24826,-505
4871,-24826,-1529
3847,-25082,-2041
3847,-25850,-3321
3847,-26618,-4345
3079,-26874,-4857
2055,-27130,-5881
1799,-27642,-6393
1799,-28154,-6905
1287,-28154,-7161
1031,-28666,-7673
519,-29434,-7929
-249,-29691,-8441
-249,-29435,-8441
7,-29690,-8441
263,-29690,-8953
263,-29946,-9209
-249,-30459,-8953
-505,-30715,-8185
-505,-30715,-8185
-249,-30715,-8441
-249,-30715,-8697
7,-30970,-8441
7,-30970,-8441
263,-29946,-8697
775,-29690,-8697
519,-29946,-8441
519,-30202,-8441
775,-30714,-8441
775,-30714,-8441
519,-30970,-8185
263,-30714,-8185
7,-30458,-8185
263,-29946,-8441
1031,-29690,-8441
1287,-29946,-8185
263,-30458,-8185
7,-30202,-8441
263,-30458,-8441
263,-30458,-8185
7,-30458,-7929
-761,-31227,-8441
-761,-31483,-8441
-505,-31227,-8185
-505,-30971,-8441
-505,-31483,-8697
-1273,-31483,-8441
-1273,-31739,-8185
-1017,-31995,-8953
-505,-31739,-9465
-761,-31483,-9465
-761,-31739,-9209
-505,-31739,-9209
-505,-31739,-9465
-761,-30971,-9465
-249,-29947,-8697
775,-29178,-6649
1031,-28410,-5113
1287,-28410,-4601
1543,-27898,-3833
1543,-27130,-3065
2055,-25850,-2297
2823,-25082,-2553
2567,-24826,-4857
2823,-24314,-6393
2823,-24570,-8185
2823,-24570,-9721
2055,-24826,-10233
1543,-25082,-10489
1543,-27130,-9721
1031,-28666,-9209
7,-29946,-9209
-1529,-32507,-9465
-2553,31493,-9209
-2809,31493,-9977
-2553,31237,-10745
-1529,30981,-10745
-1273,30725,-10745
-1529,30725,-11001
-1529,30469,-10745
-1785,30469,-10489
-2297,30725,-10745
-2041,30725,-11001
-2041,30981,-11257
-1785,30469,-11257
-2297,30213,-11001
-2553,30213,-10745
-2041,30725,-10745
-2041,30725,-10745
-1785,30981,-10489
-2297,30469,-11001
-2809,30469,-11257
-2809,30469,-11257
-2809,30213,-10745
-2297,30469,-10233
-2297,30725,-9977
-3065,30213,-9465
-3321,29957,-6393
-3577,30469,-2553
-2809,-32763,-1017
-1785,-30203,-3833
2823,-22010,-17657
10503,-6650,23303
18695,5382,-7416
25606,8710,-32248
27398,3590,22536
21766,-13818,25863
11782,-30202,-24313
2822,30470,-4345
-1530,30213,12551
-761,30725,25351
263,31494,-29689
263,32006,-21497
-1529,32261,-14329
-2553,30725,-10233
-2809,28677,-9977
-2809,28677,-9721
-2553,29189,-8441
-2553,29189,-8185
-3065,28165,-7161
-3065,28165,-7161
-3321,28165,-6393
-3321,28677,-5625
-3065,28933,-5625
-3577,28421,-5625
-3833,28165,-5881
-3833,28165,-5625
-3577,29189,-5369
-3577,29189,-5369
-3321,28677,-5369
-3577,28677,-5113
-3577,28933,-4857
-2809,29701,-5369
-2297,29701,-5113
-2297,29701,-4857
-2297,30213,-4857
-1273,30725,-4601
-761,30981,-3833
-505,30981,-3065
-761,31237,-2553
-505,31749,-2553
1031,-32506,-1529
1543,-31482,-505
1287,-31482,-505
1799,-31226,263
3080,-30714,1031
3336,-29946,2311
3592,-29946,2567
3592,-29434,2567
3592,-28922,3335
3592,-28410,4359
3848,-28154,4615
4360,-28154,4359
4360,-27898,4615
4616,-27386,4103
4360,-27386,3335
4616,-27386,2567
4872,-26874,2311
5128,-26874,1543
4616,-27130,519
4616,-27130,263
4360,-27130,-761
4359,-26874,-2041
4359,-26874,-3321
3847,-27386,-4345
3079,-27642,-5113
3079,-27386,-5625
3079,-28154,-6137
2567,-28410,-6393
2055,-28922,-7417
1799,-29178,-7161
1543,-29946,-7673
1287,-30202,-8185
1031,-30714,-8697
519,-30714,-8441
263,-30970,-8441
7,-30970,-8697
263,-31226,-8697
263,-31482,-8441
-505,-31483,-8441
-761,-31995,-8953
-761,-32251,-9209
-505,-31995,-9209
-505,-31995,-8953
-505,-31995,-8953
-249,-32251,-8953
519,-32250,-8441
519,-31738,-8185
519,-31226,-8185
263,-31738,-8697
519,-31738,-8697
519,-31738,-8953
775,-31738,-8441
775,-31994,-8185
519,-31994,-8441
-505,-31995,-8441
7,-31738,-7929
263,-31994,-7161
263,-31994,-7161
263,-31738,-7929
7,-31738,-8441
263,-31994,-8185
519,-31994,-8441
519,-31994,-8441
263,-31994,-8185
-249,-31995,-8185
-505,-32251,-8185
-505,-31995,-8697
-505,-32507,-8697
-249,-32763,-8953
-249,-32507,-8953
-505,-31995,-9209
-505,-32251,-9209
-249,32517,-8697
-249,32517,-8185
-249,-31739,-8441
519,-30202,-7929
1543,-29434,-5881
1799,-29434,-4857
2055,-29434,-3833
2567,-28410,-3321
3079,-27898,-2041
3079,-27642,-1273
3335,-26106,-2041
3335,-25338,-4345
3591,-25594,-6905
3591,-25338,-7929
3079,-25338,-8441
3079,-25594,-9209
3079,-25850,-9465
3079,-27130,-8953
2055,-29434,-8697
519,-31226,-8441
-761,32517,-8185
-2297,30725,-8441
-2297,30213,-9209
-2297,30213,-9209
-2297,30469,-9209
-2297,30469,-9721
-2041,29701,-9977
-1529,29957,-9977
-1273,29957,-9721
-1273,29957,-9721
-1017,30213,-9977
-1529,29189,-9977
-1785,29189,-9721
-1785,28933,-9721
-1529,28933,-9721
-1529,29189,-10489
-1529,28933,-10233
-1785,29189,-10233
-1785,29701,-10233
-1529,29445,-10233
-1785,29189,-9977
-1785,29445,-9721
-2809,29189,-9465
-3065,29445,-8953
-3065,29445,-8185
-3065,29189,-6137
-2809,30213,-1785
-3065,31749,-761
-1273,-30715,-5113
4359,-20474,-19961
12039,-4602,19975
19975,6406,-9464
26374,8454,-31992
27910,1542,22536
20998,-16378,27911
17414,-23034,31751
1798,29190,-1017
-506,28933,15111
7,30470,26887
519,31494,-28665
-249,31237,-19705
-1785,30469,-13305
-2809,29445,-9721
-2809,28421,-9209
-3065,28165,-8441
-2809,28165,-7161
-2553,28165,-7161
-2553,27909,-6905
-3065,28165,-6137
-3577,28165,-5113
-3065,28165,-4857
-3065,27909,-5113
-2553,27909,-5369
-2809,27653,-5113
-3065,27653,-4089
-3065,27909,-4089
-3065,28421,-5113
-2809,28165,-5113
-2809,28165,-4857
-2553,28421,-4601
-1785,28165,-4345
-2041,27909,-4089
-2297,28677,-4089
-1785,29189,-4089
-1529,29189,-3833
-761,29701,-3065
-505,30213,-2297
-505,31237,-2297
263,31750,-2297
775,31750,-1785
1543,32518,263
1544,-31738,1031
2056,-31226,1031
2312,-31226,1799
2824,-30714,3079
3336,-30202,4359
3336,-29690,4103
3592,-29690,4103
4104,-29434,4871
4360,-29178,5639
4360,-28154,5383
4616,-27642,4615
4616,-26362,4359
5640,-24570,4103
6152,-23546,3591
6152,-23034,3079
6152,-22778,2823
6152,-22522,3847
6152,-22522,4103
5384,-21754,3335
4104,-21498,2311
3848,-21754,1031
3848,-22010,1031
3592,-22778,775
3592,-24058,263
3592,-24570,7
3592,-25850,519
3336,-27130,1031
2312,-27130,1799
1544,-27386,775
1544,-27898,-1529
1287,-28666,-3321
519,-29946,-4857
-505,-30459,-5881
-761,-30715,-6393
-505,-31227,-7161
-1273,-31995,-7417
-2041,-32763,-8185
-2041,-32763,-8953
-1273,-32763,-8953
-1017,32261,-8697
-1529,31749,-8953
-1529,31749,-8953
-1273,32005,-8953
-1529,32261,-9209
-1529,32261,-9465
-1273,32005,-9209
-505,32261,-8953
-761,32517,-9209
-761,32517,-9209
-761,-32763,-8953
-1273,31749,-9209
-1273,31237,-8697
-1017,31749,-8185
-1529,32005,-8441
-1529,31749,-8441
-1785,31493,-8441
-1529,31493,-8441
-1529,31237,-8185
-1273,31493,-8185
-1529,31237,-8441
-2041,31237,-8441
-2041,31237,-8185
-2553,30981,-8185
-3065,30981,-7929
-3321,31237,-7161
-3577,30725,7
-2808,30469,2055
-760,30469,-3577
3079,-26874,-20217
10503,-8442,15111
19463,4102,-18168
26118,7430,21512
26374,1286,12040
20486,-16122,20999
11014,-31226,-21753
3078,29702,775
-761,29957,17671
-761,31237,30215
-505,32005,-25849
-1529,32261,-18937
-2809,31237,-13305
-3577,29701,-10489
-3577,28933,-9977
-3833,28933,-9465
-3833,29189,-9209
-3833,28421,-8953
-5113,27141,-8953
-6393,27397,-7929
-6137,27909,-7417
-6137,27653,-7673
-6137,27141,-7417
-6137,27141,-6905
-5881,26885,-6905
-5625,27141,-6393
-6137,27653,-5881
-6393,27397,-5881
-6393,27397,-6137
-6393,27653,-5881
-6393,27653,-5369
-6137,27653,-5113
-6393,27653,-5113
-5625,27909,-4601
-5625,28933,-3833
-5113,29189,-3833
-4601,28933,-3577
-4857,29189,-2809
-4857,29701,-2041
-4345,30213,-761
-4089,30213,7
-3832,30725,263
-3576,31749,775
-2552,32517,1799
-1528,-32763,2311
-1528,-32507,2567
-1528,-31995,2567
-1272,-31483,2823
-1016,-31227,2823
-504,-30971,2567
-760,-30715,2055
-760,-30203,1031
264,-30202,519
776,-29690,-249
263,-29434,-1529
519,-28922,-2809
519,-29178,-4601
7,-28922,-5369
-505,-29435,-6137
-1273,-29947,-6905
-1529,-30459,-8441
-1529,-30459,-8953
-1785,-30715,-9209
-2041,-30971,-10233
-2041,-31739,-10745
-3065,-32507,-11257
-3321,-32763,-11001
-3577,32517,-11001
-4089,32517,-10745
-4601,32261,-11513
-4601,32005,-12025
-4345,32261,-12281
-4857,32005,-12281
-5113,31749,-12281
-5113,30725,-12025
-5113,30725,-11769
-4857,31493,-11769
-4601,31749,-11513
-4601,31493,-12025
-4601,31749,-12281
-4601,31749,-11513
-4345,31237,-11513
-4601,30725,-11513
-4857,30469,-11513
-5369,30469,-11513
-5369,30725,-11257
-5113,30725,-11257
-5113,30725,-11001
-5113,30213,-11001
-5369,30213,-11257
-5369,30213,-11513
-5113,30213,-11769
-5625,29957,-12281
-5881,29957,-12537
-5881,30213,-12537
-5881,29957,-12537
-6137,29957,-12281
-6137,29701,-12537
-6137,29189,-12537
-6649,28933,-13049
-6905,29189,-13049
-6393,29189,-13305
-6393,29445,-13561
-6137,29445,-13817
-6137,28933,-13817
-6393,28677,-13817
-7161,28933,-13561
-6905,28933,-13817
-6905,28677,-14329
-6649,28677,-14585
-6649,28933,-14585
-6905,28933,-14841
-6905,28933,-14329
-6649,28165,-14329
-7161,28165,-14073
-7161,28165,-14329
-7161,28165,-15353
-7417,27909,-15097
-7417,28421,-14841
-6905,29445,-14841
-6905,30213,-14585
-6393,30213,-14329
-5369,31493,-11769
-5625,32005,-10233
-4857,32261,-9465
-4601,32261,-8697
-4601,-32507,-8697
-3833,-30715,-8441
-3577,-29179,-8185
-3065,-29179,-9721
-2809,-29435,-11769
-2809,-29179,-13817
-3065,-28923,-14329
-3833,-28667,-14329
-3833,-29947,-14329
-4089,-31739,-14329
-4089,31493,-14329
-5881,29957,-14073
-7929,29189,-14585
-8441,27653,-15353
-8441,26117,-15353
-8697,26373,-15609
-8441,26373,-16633
-8441,26373,-16377
-8697,26117,-16633
-8953,26117,-16377
-8441,26117,-16377
-8441,26117,-16889
-8441,25861,-16889
-8441,25861,-16633
-8953,25861,-16889
-8953,26117,-17145
-9209,26117,-16889
-9209,26117,-16889
-8953,25861,-16633
-8953,25861,-16633
-9209,25861,-16633
-9977,25605,-16889
-10489,25349,-16889
-10233,25093,-16889
-10233,25861,-16889
-10233,26373,-16889
-10233,26629,-15865
-9977,25605,-13817
-10489,25861,-9721
-11001,28421,-8697
-11001,31493,-12281
-7673,-27643,-25849
-1529,-13051,15367
6151,1030,-15096
12294,6150,24328
14854,6662,17672
14342,-9978,10759
6150,-27642,26119
-3066,30213,-17657
-7418,27909,1543
-7673,27653,15623
-6905,28421,25095
-6649,29189,-31993
-7929,28677,-23801
-8953,26885,-18681
-10233,25093,-16889
-10489,25093,-16377
-10489,24837,-15353
-10745,25349,-14585
-10745,25605,-14329
-10489,24837,-14073
-10489,24325,-13305
-10745,24325,-12537
-10745,24325,-12793
-10745,24325,-12537
-10745,24069,-12537
-10745,24069,-12537
-10489,23813,-12281
-9465,24837,-12537
-9209,25605,-12537
-8953,25605,-12281
-8953,25605,-12281
-9209,25605,-11769
-9209,25605,-11513
-8953,25605,-11513
-8441,25861,-11001
-8185,26885,-10745
-8441,27653,-10489
-8185,27653,-9977
-7417,27653,-9721
-7417,27909,-8441
-7417,28677,-7673
-6649,29957,-6905
-5369,30469,-6137
-4345,30469,-5113
-4345,30469,-4345
-4089,30469,-3321
-4345,31749,-2553
-4089,32517,-1273
-3065,32517,-505
-2297,-32507,-249
-2041,-31739,7
-1784,-30715,775
-1528,-30715,775
-504,-30715,519
-248,-30459,519
-760,-29691,519
-1016,-29179,775
-1016,-29435,-505
-761,-29947,-1785
-761,-29691,-2297
-1017,-29179,-2809
-1017,-29179,-5113
-1017,-29179,-6137
-761,-29435,-6649
-1529,-29947,-7673
-2041,-29947,-8953
-2553,-29947,-11001
-3065,-30715,-11769
-3577,-31483,-12025
-4345,-31483,-12793
-4601,-31483,-13817
-4857,-31995,-14073
-5369,32517,-14073
-5881,32005,-14841
-5881,32261,-15609
-5625,32261,-15865
-5881,32005,-15865
-5881,32005,-16121
-5625,32261,-16377
-5625,32261,-16377
-6905,32005,-16377
-6905,31749,-16377
-7161,31493,-16633
-7161,31493,-16633
-6905,31237,-16377
-7161,31237,-16121
-6649,31749,-15609
-6905,31749,-15609
-6905,31749,-15865
-7161,31493,-16121
-7161,31749,-16121
-7161,31749,-15865
-6905,31493,-15865
-6905,31493,-15609
-6905,31749,-15609
-6649,31749,-15609
-6649,31493,-15609
-7673,32005,-15353
-7929,32261,-15353
-7161,32261,-15097
-6649,32005,-15097
-6393,31749,-15097
-6905,32517,-14841
-7161,32517,-14585
-7161,32517,-14585
-7161,32005,-15097
-7417,31749,-15353
-7417,31749,-15609
-7161,31493,-15353
-7161,31493,-15353
-6905,-32507,-15609
-6137,-31739,-15353
-5113,-30971,-14073
-4857,-30459,-12793
-4601,-29947,-10745
-4601,-29691,-9977
-4857,-29691,-9209
-4089,-29435,-8441
-3577,-28411,-8441
-3577,-26619,-9977
-3321,-26363,-12281
-3321,-26875,-14073
-3577,-27387,-15865
-4089,-27387,-16889
-4345,-27387,-17401
-4857,-27387,-17657
-4601,-27899,-16889
-5369,-30715,-16377
-6393,-32763,-17145
-6905,-32763,-17657
-8185,30213,-17401
-8441,28421,-17401
-9209,27909,-17401
-9209,27909,-17145
-8953,28421,-18169
-8441,28933,-18425
-8441,28677,-18425
-8697,28677,-18425
-8441,28677,-18169
-8697,27653,-18425
-8697,27909,-18425
-8953,27909,-18425
-8697,28165,-18169
-8441,28933,-18169
-8185,28677,-18425
-8185,28421,-18425
-8441,28165,-18169
-8697,28165,-17657
-8441,28165,-17913
-8185,27909,-17913
-8185,28165,-17657
-8441,28165,-17657
-8441,28165,-17657
-8441,28165,-16889
-8185,28421,-16121
-8185,30469,-11513
-8697,32517,-11513
-8441,-30715,-19449
-6393,-25083,29703
-1017,-12027,1799
6407,1798,-31992
13062,8198,7176
16646,7174,-5112
16645,-2554,-2297
11013,-20218,18183
3590,-29690,-20729
-1530,-31995,1031
-3321,32517,14599
-3065,32517,23559
-4601,31493,32263
-6905,29701,-25081
-7161,29701,-18937
-6905,28677,-16633
-7673,27141,-15353
-8441,27141,-14329
-8441,27141,-13817
-7673,27141,-13817
-7161,27141,-13049
-7161,27141,-11769
-7417,26885,-11257
-7929,27141,-11513
-7673,26885,-11257
-8185,26373,-11257
-8441,26117,-11001
-8441,26629,-10745
-7673,26885,-10233
-7161,26885,-9465
-7673,26885,-9209
-7929,27141,-8953
-7673,27141,-8697
-7673,27141,-8441
-7673,27397,-8185
-6905,28165,-7673
-6393,27909,-6649
-6393,28165,-5881
-6393,28933,-4857
-6137,29189,-4345
-5625,29189,-2809
-5369,29189,-2041
-4601,29957,-1017
-3833,31237,7
-3576,31493,1287
-2552,31749,3079
-1528,32261,4359
-1272,-32763,4615
-1528,-32507,6151
-1784,-32251,6919
-1016,-32251,8199
-760,-31739,8199
-504,-30971,8711
264,-30202,8967
776,-30202,8967
776,-30202,8711
520,-30202,8711
8,-30202,8711
8,-30202,7943
776,-29690,6151
776,-29690,4615
520,-29434,3847
8,-29434,2567
-504,-30459,263
-760,-30971,-1017
-1017,-30971,-2041
-2553,-31483,-2809
-3321,-31995,-5113
-3321,-31995,-6905
-3321,-31739,-7161
-3065,-31739,-7161
-3065,-32507,-8697
-3577,32517,-9465
-5113,32261,-9977
-5369,32517,-9977
-5369,32005,-10489
-5113,31749,-11257
-5113,31749,-11513
-5113,31493,-11257
-4857,31493,-11513
-5113,31749,-12025
-5113,31749,-12281
-5113,31237,-11257
-5369,30981,-11001
-5369,31237,-10745
-5113,31237,-11513
-5113,31237,-11769
-4857,30469,-11257
-4857,30725,-11257
-4601,30725,-11513
-4601,30981,-11513
-4601,31493,-11513
-5369,31749,-11513
-5369,31749,-11769
-5113,31749,-11513
-5113,31493,-11257
-4857,31749,-11257
-4601,31749,-11513
-4601,32005,-11001
-4345,31749,-11001
-4345,31493,-11001
-4345,31749,-11257
-4601,32005,-11513
-4857,31493,-11513
-4857,31493,-11257
-4601,31493,-11257
-5113,31237,-11513
-5369,30981,-11513
-5369,30725,-11257
-5625,30469,-11513
-5369,30469,-11769
-5113,30469,-11769
-4857,30725,-11513
-4857,32005,-10745
-4345,-32251,-9721
-3321,-31483,-7929
-2809,-30971,-6393
-2809,-30203,-4601
-2297,-29435,-3833
-2041,-29179,-3833
-1529,-27643,-3577
-1273,-26875,-3577
-1017,-26619,-4089
-1273,-26363,-8697
-1529,-26875,-10745
-1273,-27131,-11001
-1017,-26875,-11001
-1017,-26619,-11513
-1017,-27899,-11769
-2041,-30459,-11513
-3577,32517,-11001
-4857,30981,-11001
-5625,29701,-11001
-6137,27909,-11257
-6393,27397,-11513
-6393,27909,-11769
-6137,28165,-11769
-6393,28421,-12281
-6393,28421,-12281
-5881,28421,-12281
-6137,28165,-10745
-6137,28421,-7161
-6137,28677,-5113
-6393,28933,-5369
-5881,29445,-10233
-5369,29957,-21753
-3833,29701,27911
-3065,29701,21767
1543,-32250,-9209
3846,-29946,-27385
6150,-23290,17159
8454,-15610,-4345
10757,-9978,-21241
11525,-5626,-30457
11525,-3322,-32505
11013,-5882,-26873
9221,-12026,-14841
6405,-17914,1031
4358,-23802,15623
3078,-27130,27911
1542,-27130,-26105
262,-25594,-14329
262,-23034,-2553
2566,-20218,7175
4359,-19962,16135
4359,-25082,26375
2823,-30714,-29689
1031,-32506,-22265
-1017,31749,-16633
-3065,29445,-8697
-5369,27141,-1529
-6649,26373,2823
-6648,26373,3079
-8184,25861,7687
-8696,24837,9735
-8696,24069,10759
-8440,24325,10759
-8440,24325,12295
-8696,24325,15111
-8696,24069,16903
-9208,24325,16903
-9464,24581,18183
-9720,24325,21511
-9976,23813,23815
-9976,23557,24583
-9976,23813,26887
-9720,23813,30727
-9464,24069,-31481
-9464,23557,-28921
-9720,23301,-27129
-9464,23557,-23545
-9208,24069,-19705
-9208,23813,-17913
-8952,23813,-16121
-8952,24581,-12537
-7928,24581,-9209
-7672,25093,-7929
-7672,25349,-7929
-7416,25349,-5113
-7160,25605,-3833
-6648,26373,-2809
-6392,27141,-2809
-5624,27141,-2297
-5624,27653,-2553
-5112,27653,-2809
-4856,27909,-5369
-4856,27909,-8185
-4088,29189,-9977
-3320,29701,-12025
-3320,29701,-15609
-3320,29957,-20217
-3576,30725,-23545
-3320,31493,-26361
-2808,31749,-30713
-2296,31493,30215
-2040,32005,26375
-2552,-32507,23303
-2552,-31995,19975
-2040,-32251,16135
-1528,-31739,12551
-1272,-31995,10759
-1272,-31995,7943
-2040,-31739,6151
-2552,-31995,2055
-1784,-31995,775
-1784,-31995,263
-2296,-31995,-2297
-2809,-32251,-4345
-2553,-32251,-4345
-2297,-31995,-4345
-2041,-31995,-5625
-1785,-31995,-6649
-2553,-32251,-6649
-2809,-32507,-6649
-2809,-32507,-6649
-2553,-32507,-7161
-2553,-32763,-7417
-2553,-32763,-6905
-2809,-32507,-6649
-3065,32261,-6649
-3065,32005,-6905
-3065,32261,-7417
-3065,32517,-7161
-3321,32261,-6649
-4089,32005,-6649
-3577,32261,-6649
-3833,32261,-6649
-3321,32261,-6905
-3065,32005,-6393
-2809,32261,-6393
-2809,32005,-6393
-2553,32261,-6905
-2553,32517,-7417
-2809,32517,-7673
-2553,-32763,-7417
-2297,31749,-7161
-2553,31749,-6905
-2809,32005,-7161
-2809,32005,-7417
-2553,32005,-7673
-2809,31749,-7673
-2809,31493,-7417
-2809,31493,-8185
-3065,31237,-8185
-3065,30981,-8185
-3065,30725,-7929
-3065,30725,-9209
-3321,30981,-8953
-3065,31237,-8953
-2809,-32763,-8697
-2041,-30971,-9209
-1529,-30459,-9465
-1785,-30459,-9977
-1273,-26875,-7929
-249,-25595,-4857
775,-25594,-2553
1031,-25594,-1017
7,-26874,-249
-761,-28411,-249
-1017,-30459,-1273
-1017,-31227,-1529
-1273,-31995,-1529
-2041,-31995,-2297
-2809,32005,-4345
-3065,31493,-6905
-2809,31493,-8185
-3577,30981,-8185
-3833,30213,-7929
-4345,29445,-8441
-4089,28933,-8697
-4089,29189,-8953
-4089,28677,-9721
-4345,28677,-10233
-4601,28421,-9977
-4601,28933,-10233
-4601,29189,-10233
-4345,28933,-10489
-4857,28165,-10745
-5625,27397,-10745
-5625,27653,-11001
-5369,27653,-10489
-4857,28165,-10489
-4601,28165,-10489
-5369,28165,-10489
-5625,28165,-10489
-5625,28165,-10489
-5625,27909,-9977
-5881,27653,-7929
-5881,27653,-4857
-5625,28421,-2553
-5881,30213,-2553
-3577,-31227,-8185
1799,-19706,-26617
9991,-3322,9479
18439,5638,-20984
23558,6662,23304
23302,-2042,17159
16390,-20474,25607
6406,32262,-20729
-762,29701,519
-2297,29445,17415
-2297,29957,28167
-2041,29701,30471
-3577,29701,-20217
-4601,29701,-12793
-5113,28677,-10745
-5369,27653,-10745
-5625,27397,-9721
-5625,27397,-8185
-5113,26885,-7417
-5369,26629,-7417
-5625,26629,-7161
-5881,26629,-6137
-5881,26885,-5881
-6137,26885,-6137
-6137,26629,-5881
-6393,26629,-5369
-6393,26373,-5625
-5625,26373,-5625
-5113,27653,-5369
-5113,27653,-5113
-4857,27653,-5369
-5113,27397,-4857
-4345,27909,-4601
-3833,28677,-4601
-4089,29189,-4857
-3833,29189,-4857
-3321,29189,-4089
-2809,29445,-2809
-2809,30213,-3065
-2297,30725,-3065
-1273,31237,-1785
-761,31237,-761
-505,32261,-249
-249,-32251,-249
519,-32250,519
1032,-32506,2055
1032,-31226,2567
776,-30970,2823
1544,-30714,3079
2312,-30458,3847
2312,-30202,4615
2312,-29434,4359
2056,-29178,4359
2312,-29434,4359
3080,-28410,4103
3848,-27386,3079
3592,-27386,3079
3080,-27386,2567
3080,-27386,1799
3336,-27642,1031
3336,-27642,-249
3335,-27386,-249
2311,-27386,-1017
2055,-27898,-2041
2055,-28922,-3065
2055,-28666,-4089
1031,-28922,-4345
775,-29178,-5113
1031,-29946,-5369
263,-30458,-6137
-249,-30203,-6137
-505,-30203,-6393
-505,-30971,-7161
-761,-31739,-7161
-1017,-31483,-7417
-1785,-31739,-7673
-1785,-32507,-7929
-2297,-32507,-8441
-2553,-32763,-8185
-2553,-32763,-8441
-2553,32517,-8441
-2297,32517,-8185
-1785,-32763,-8185
-1785,-32507,-8185
-2297,-32507,-7929
-2553,-32507,-7417
-2297,-32763,-7161
-1785,-32763,-7161
-1529,-31995,-7417
-1529,-31995,-7929
-1273,-31995,-7673
-1017,-32251,-7673
-1273,-32507,-7929
-761,-31995,-7929
-761,-31995,-7673
-505,-32251,-7161
-505,-31995,-7161
-761,-31739,-7417
-761,-31739,-7417
-1017,-31995,-7161
-1017,-31995,-7161
-761,-31739,-7417
-1017,-31483,-7417
-1273,-31739,-7161
-1273,-32507,-7417
-1017,32517,-7417
-1529,32517,-7673
-1785,32261,-7673
-1785,32261,-8185
-1529,32517,-8441
-1529,32261,-8441
-1529,32005,-8185
-1785,32261,-8185
-1785,32261,-8697
-1529,32261,-8697
-1785,31749,-8697
-2297,31493,-9209
-2297,31749,-9209
-2041,31749,-9465
-2041,32005,-9465
-2553,31749,-9465
-2553,31493,-9721
-2297,31493,-8953
-2041,-32763,-8441
-1785,-30971,-7673
-505,-29947,-6393
263,-29946,-4345
7,-30202,-2809
263,-29946,-2553
1031,-28666,-2809
2055,-27642,-2041
2055,-26874,-2297
1799,-26106,-3577
1799,-25850,-6137
1799,-25850,-8697
1799,-25850,-8953
1031,-26618,-8697
775,-27642,-8953
263,-28410,-8953
7,-29690,-8441
-1785,-31739,-8441
-3321,32261,-8441
-3577,30981,-8697
-3321,30213,-9465
-3321,29957,-9465
-3577,29957,-9209
-3833,29957,-9209
-3577,29701,-9721
-3577,29701,-9977
-3577,29701,-9721
-3065,29957,-10233
-3065,29957,-10233
-3065,29701,-9977
-3065,28677,-9977
-3321,28677,-9977
-3321,29445,-10233
-3321,29445,-10233
-3321,29189,-10489
-3833,29445,-10489
-4089,29445,-9721
-4089,29445,-9721
-4345,29445,-9977
-4345,29189,-9721
-4601,28933,-8697
-4345,28933,-8441
-4601,28677,-7673
-5113,29189,-4089
-5369,30725,-761
-3833,32261,-761
7,-27642,-10489
5639,-14074,-30457
13063,518,5640
20743,6662,-21240
25606,5382,26888
23302,-7162,23047
14086,-25850,-30201
4358,30470,-10233
-250,28933,8199
-505,29445,21767
-1017,30469,32263
-1017,31493,-23545
-2041,31749,-16121
-2297,30213,-11001
-2809,28421,-9465
-3577,28165,-8185
-3833,28165,-7161
-3577,28421,-6905
-3833,27653,-6649
-4345,27141,-6393
-4601,27397,-5113
-4601,27909,-4601
-4345,28165,-4857
-4089,28421,-5625
-4089,27909,-5113
-4089,27653,-4601
-3833,28165,-4345
-4089,27909,-4345
-4089,27909,-4601
-3833,28165,-4857
-3577,28165,-4857
-3577,28165,-4345
-3321,28165,-4345
-3065,28421,-4345
-3065,28677,-4345
-2809,29189,-3321
-2041,29445,-2809
-1273,30213,-2809
-505,30981,-3065
-249,31237,-2041
7,31494,-1017
519,32006,-761
775,32518,-505
775,-32506,775
1288,-31738,2311
2312,-30970,2567
2568,-30458,2823
2824,-30202,3591
3336,-29434,4103
3592,-29434,4871
4104,-28922,5383
4360,-28154,5639
4104,-28154,5383
4616,-28154,5127
5128,-26874,5127
5384,-26618,5127
5384,-26618,4615
4872,-27130,3591
4872,-27130,3079
4872,-27130,3079
4616,-27130,1799
4616,-27386,7
3848,-27386,-1273
3591,-27130,-2041
3335,-27642,-2553
3335,-28410,-4345
2055,-29690,-5113
1287,-29690,-5113
1287,-29690,-5369
1543,-30202,-6393
519,-30202,-6905
-249,-30459,-6905
-249,-31227,-6905
-249,-31739,-7417
-761,-31739,-8185
-505,-31483,-8441
-761,-31995,-8185
-1273,-32251,-8185
-1273,-32251,-8441
-1273,-32507,-8441
-1273,-32507,-8185
-1529,-32763,-8185
-1529,-32763,-8441
-1273,-32507,-8441
-1017,-32507,-8185
-1273,-32507,-7929
-1273,-32763,-7929
-1273,-32763,-8185
-1273,32517,-7673
-1273,-32507,-7161
-505,-31483,-7417
-505,-31483,-7417
-249,-31739,-7417
-249,-32251,-7417
-761,-32507,-7161
-505,-31995,-7161
-249,-31483,-6905
-249,-31483,-7161
-249,-31739,-7417
-505,-31995,-7161
-1017,-31995,-7161
-761,-31739,-6905
-761,-31739,-7161
-1017,-32251,-6905
-1785,-32507,-6905
-1785,-32251,-6905
-1529,-32763,-7417
-1529,32517,-7417
-1785,32517,-7161
-1529,32261,-7161
-1017,32261,-7417
-1273,32261,-7417
-1273,32517,-7673
-1017,32261,-8185
-761,-32763,-8441
-1017,-31739,-7929
-1017,-30971,-6905
-505,-30715,-6393
1031,-29946,-4345
1287,-29690,-3321
1287,-29178,-1785
1031,-28666,-1017
2311,-27130,-1273
3079,-26106,-1017
2823,-25850,-1785
2567,-25850,-3833
2567,-25594,-6393
2055,-25594,-7673
1287,-26106,-7929
1799,-25850,-7929
1799,-26618,-8441
1799,-28154,-8185
519,-30202,-7929
-1529,32517,-8441
-2553,31237,-8953
-2297,30213,-8953
-2553,29701,-8697
-2809,29701,-9209
-2553,29701,-9465
-2553,29957,-9977
-2297,29701,-9721
-2297,29189,-9721
-2297,28933,-9465
-2297,29189,-9721
-2553,29445,-10233
-2809,29701,-9977
-2553,29445,-9721
-1529,29189,-9721
-1785,29189,-10489
-2809,29445,-10489
-3065,29445,-10233
-3065,29445,-10233
-2297,29445,-10233
-2297,29189,-9977
-2553,29445,-10233
-2553,29445,-9977
-2553,29189,-9465
-2809,29189,-9465
-3065,29445,-7417
-3833,29957,-2809
-3833,31237,-249
-2809,-32507,-2297
519,-26106,-12025
7175,-12026,32007
16391,3078,2568
24071,8710,-24568
27142,5894,25352
27398,3590,22280
15110,-25850,-28665
5894,30470,-9977
262,28678,8199
-505,29957,22535
263,30982,32519
263,31238,-24569
-1529,31237,-16377
-3321,30469,-10745
-3833,29189,-8953
-3577,27653,-9209
-3321,27653,-8185
-3321,28421,-6905
-3321,28421,-6649
-3577,27909,-6649
-3577,26885,-5881
-3833,26885,-5369
-3833,27397,-5113
-3833,27909,-4601
-4345,27141,-4857
-4601,26885,-5113
-4345,27653,-5113
-4089,27653,-5369
-3065,27909,-4345
-3065,27909,-4345
-3321,27653,-4345
-3577,27909,-4601
-3065,28165,-4601
-2553,28677,-4345
-2041,29189,-4089
-2041,29445,-4089
-1785,29701,-3833
-1017,30213,-3577
-505,30981,-2553
-249,31237,-2041
7,31238,-1529
263,32262,-1529
1031,-31738,7
1288,-31738,519
1800,-31482,775
2824,-30202,2311
3080,-29434,2823
3336,-29434,3335
3592,-29178,3847
3848,-28666,3847
4872,-27898,4103
5128,-27642,4871
4872,-27642,4615
5384,-27386,4359
5640,-26874,4359
5384,-26874,4103
5640,-26874,3335
5640,-26874,2823
4616,-26618,1543
4104,-26618,263
4360,-26618,-761
4615,-27130,-1785
3335,-27642,-3321
2823,-28154,-4089
2055,-28410,-4601
2055,-28666,-5113
2055,-28410,-5881
1031,-28922,-7161
1031,-28922,-7673
1031,-28666,-7673
1287,-28666,-7673
775,-27642,-8441
519,-26618,-8441
1543,-26618,-7673
1799,-26874,-6137
1799,-26618,-5625
775,-26618,-5881
7,-26874,-5625
775,-26874,-4601
1287,-26874,-4089
1543,-26874,-4089
1543,-28154,-1529
1543,-28922,-249
1543,-29178,7
1544,-28922,-1273
1287,-28922,-3321
1287,-29690,-4601
775,-30970,-5625
-249,-31483,-6137
7,-31482,-6393
7,-31738,-6649
-505,-32507,-7161
-249,32517,-7161
7,32262,-7673
-249,32005,-7929
-761,31749,-7673
-1017,31749,-7673
-1017,31493,-7673
-1017,31493,-8441
-1273,31749,-8441
-1273,31749,-8441
-1273,32005,-8953
-761,32005,-9209
-249,32005,-9209
-505,32005,-8953
-249,32261,-8953
-249,32005,-9209
-1017,31237,-9465
-1017,31493,-9465
-761,31493,-9977
-1017,31237,-10233
-1017,30981,-10489
-1785,30981,-10489
-2041,31237,-9209
-2041,31237,-7417
-2553,31237,-4089
-2553,-32763,-1017
-1273,-31483,-2553
1799,-26618,-13817
7687,-12794,26631
16135,3334,-6648
23814,10502,30472
27398,9222,15368
26118,-4090,13575
17670,-23290,29959
7942,-32762,-12025
2054,30726,8711
519,30726,22791
519,32006,32007
7,32518,-24825
-249,32517,-20729
-2553,30469,-12281
-3065,29189,-12025
-3065,29189,-11257
-3065,29189,-9465
-3065,28933,-8441
-3321,28677,-8953
-4345,28421,-8953
-4089,28421,-6905
-4089,28421,-6137
-4089,28165,-6649
-4089,27909,-7417
-3833,28677,-7417
-3833,28933,-7161
-3065,28933,-6649
-3065,28677,-6905
-3833,28677,-6649
-3833,28933,-6393
-3577,28933,-5625
-4089,29189,-5625
-4345,29189,-5625
-3833,29701,-5113
-3577,29957,-5113
-3577,29957,-4857
-3577,29957,-3833
-3577,29957,-3321
-2297,31237,-2553
-2041,31749,-1785
-2041,32261,-1273
-1785,32517,-1017
-505,-32763,263
264,-32250,1031
776,-31226,1799
776,-31226,2055
520,-31482,2567
776,-30714,3079
776,-30458,2823
776,-29946,2567
776,-29690,2823
776,-29434,2823
776,-28922,2567
776,-29178,1287
1032,-29434,775
776,-29434,263
264,-29178,-1529
-249,-29179,-3321
-761,-29435,-4601
-505,-29435,-4857
-761,-30459,-5881
-2297,-31227,-6905
-2553,-31483,-7417
-2297,-31739,-7929
-2553,-32251,-8441
-3833,32261,-9209
-4345,31749,-10745
-4089,31749,-10489
-3833,32005,-10489
-3833,31237,-11257
-4345,30213,-11513
-5369,30469,-11769
-5369,30469,-11257
-5113,30213,-11001
-5113,30213,-11001
-5113,30469,-12025
-5113,30725,-12281
-5369,30725,-11257
-5369,29957,-10745
-5113,29957,-11001
-5369,30213,-11001
-5881,30469,-10745
-5881,30725,-10745
-5881,29701,-11257
-4857,29445,-11513
-4857,29701,-11513
-5369,29701,-10489
-5625,29445,-10745
-5625,29445,-11001
-5113,29701,-11001
-5113,29701,-11257
-5113,29445,-11513
-4857,30213,-11257
-4601,30213,-11257
-5113,30213,-11513
-5113,30469,-11513
-5369,30213,-11769
-5625,29957,-11769
-5881,29701,-12025
-5881,29701,-12537
-5625,30469,-12537
-5625,30469,-12537
-6137,29701,-12793
-6393,29701,-13049
-6393,29701,-12793
-6649,29957,-12537
-6393,29957,-12793
-6137,29701,-13305
-6393,29701,-13305
-6393,29957,-13305
-6393,29701,-13561
-6393,29701,-13561
-6393,29445,-13305
-6393,29189,-13305
-7161,28677,-13561
-7161,28677,-14073
-6905,28421,-14073
-7161,28933,-14329
-7161,29189,-14329
-7161,28421,-14585
-7161,27653,-14841
-7417,27653,-14329
-7929,27653,-14585
-7929,28421,-14329
-7417,28677,-14329
-6905,29189,-14073
-6393,30981,-12537
-5881,32005,-10745
-5625,32005,-9721
-5113,32005,-9209
-4857,32261,-8441
-4857,-31227,-7673
-4089,-29691,-8185
-3321,-29691,-9721
-3065,-29947,-11513
-3065,-29947,-13049
-3577,-28923,-14329
-3833,-28923,-14585
-3833,-29691,-14841
-4089,-30715,-14841
-5113,-32251,-14585
-6393,31493,-14329
-7161,29445,-14585
-7929,27909,-14841
-8441,27141,-15097
-9209,27141,-15609
-9209,26885,-16121
-8953,26373,-16121
-8953,26373,-16121
-8441,26629,-16633
-8185,26885,-16633
-8185,26885,-16889
-8185,26885,-17145
-8441,26629,-16889
-8697,26373,-16889
-8697,26373,-16889
-9209,26373,-17145
-9465,26117,-16633
-9465,26373,-14585
-9465,26373,-11769
-9465,26629,-8697
-9209,26629,-7673
-9209,26373,-7417
-8185,26885,-20729
-5881,28933,29959
-3065,30725,13575
-249,32005,-1017
774,-32506,-14329
1542,-28922,-27897
2822,-21754,22279
5638,-15610,8199
9222,-8698,-4089
13573,1286,-11768
18437,9990,-11768
23813,11526,776
25862,5894,20744
23814,-7162,-23801
16902,-21754,-5113
7686,-30458,9991
-249,31493,21511
-4601,30469,29447
-5369,30469,-29689
-6137,30725,-22521
-6649,30213,-15865
-7929,27909,-11001
-8185,25861,-9721
-8697,26117,-9209
-9209,26629,-7929
-9465,26629,-5881
-9977,25861,-5881
-10233,25093,-5881
-10489,24837,-5113
-10745,25349,-3833
-11001,25605,-3321
-11001,25093,-2809
-11769,23813,-2553
-12025,23557,-1529
-12281,24325,7
-12280,25093,263
-12024,25093,775
-11512,25349,2567
-11512,25349,4359
-11256,25349,5895
-11256,25861,7175
-11256,26117,8711
-11512,26373,11015
-11000,26373,12551
-10488,26885,14087
-9976,27909,15879
-9720,28165,18183
-9720,28165,19719
-9464,28421,20231
-9208,28677,20743
-8696,29445,23815
-8696,29957,24583
-7928,30213,24839
-7416,30725,25095
-7416,30981,26119
-7416,31493,26887
-7416,31493,26375
-6904,31749,25863
-6136,32261,25095
-6136,32517,23815
-5880,32517,22535
-4600,-32763,20999
-4344,-31995,19207
-4344,-31995,17671
-4600,-31739,15623
-4344,-31483,13063
-4344,-31227,10503
-4344,-30971,8199
-4088,-30971,5383
-3576,-31227,2823
-3320,-30715,7
-3320,-30459,-2041
-3577,-31227,-4089
-4345,-31995,-5881
-4345,-32251,-6649
-4601,-31995,-8697
-4601,-32507,-10233
-4601,32517,-11769
-5113,32005,-12537
-5369,32005,-13561
-5625,32261,-13817
-5369,32261,-13817
-5369,32005,-14073
-5113,32005,-14585
-5113,31749,-15097
-5881,31493,-15353
-5881,31749,-15097
-5625,-32763,-15353
-5625,-32763,-15609
-5881,32005,-15353
-5881,32261,-15097
-5625,32261,-15353
-5881,32261,-15353
-6393,32261,-15353
-6137,32517,-15609
-6137,32261,-15609
-6137,32005,-15609
-6393,32517,-14841
-6137,-32763,-15097
-6137,-32763,-14841
-6137,-32763,-14841
-6393,32261,-14585
-6393,32005,-14329
-6393,32517,-14585
-5625,-32507,-14585
-5625,-32507,-14329
-5881,32517,-14329
-6393,32005,-14329
-6905,32005,-14073
-6649,32261,-14841
-6649,32005,-15097
-6905,31237,-15097
-6649,31493,-14841
-6393,31493,-15609
-6649,31237,-15865
-6649,31237,-15865
-6649,31493,-15609
-6393,31493,-15609
-5881,32517,-15353
-5113,-32251,-15353
-4089,-30459,-14073
-3321,-29691,-11769
-3321,-29691,-10233
-3577,-29435,-9721
-3321,-29691,-9465
-3321,-28411,-9465
-2809,-26875,-10233
-2297,-25595,-11769
-2553,-25595,-14073
-2809,-26363,-16121
-2553,-26619,-16889
-2553,-26619,-16889
-2809,-26875,-16889
-3321,-26875,-16889
-3577,-29179,-16889
-3833,-31739,-16633
-5625,32517,-16889
-6393,31493,-16889
-7161,29701,-17913
-7673,28677,-18425
-7417,28421,-18169
-7929,28421,-18169
-7929,28165,-18425
-7673,28677,-18425
-7417,28677,-18169
-7161,28933,-18169
-7417,28677,-18681
-7161,28677,-18937
-7417,27909,-19193
-7929,27653,-18681
-8697,27397,-18681
-8441,27141,-18937
-7929,27653,-18425
-7673,28165,-17145
-7417,27909,-14585
-7929,27909,-11257
-8185,26885,-8697
-8697,26373,-8441
-8441,27141,-12793
-6393,28165,-24313
-2809,29445,25863
7,31238,9735
1031,-32506,-6905
2566,-28922,-23545
5638,-22266,24583
8710,-15610,8711
12550,-5882,-4601
18693,5894,-12280
24837,11270,-10232
29701,10758,2824
29190,2310,24072
23046,-13306,-18937
13830,-25594,-761
5126,-30714,11527
2055,-31994,15367
-4601,31493,29447
-5625,31237,-28921
-5625,31237,-22777
-6649,29957,-16633
-7417,28421,-12025
-8185,27141,-11257
-8441,26629,-11001
-8953,26629,-9465
-9209,26629,-7673
-9465,25861,-6905
-9721,25861,-6905
-9465,26117,-6393
-9465,25861,-5369
-9721,25861,-4345
-9977,26117,-3833
-9977,26117,-3577
-10233,25605,-2041
-11001,25349,-1017
-10745,25605,7
-10744,25605,775
-10744,25605,2055
-9976,26117,3847
-9208,26373,5127
-9208,26629,6407
-9208,26629,7431
-9464,27141,10503
-9720,27909,12039
-9464,28421,12807
-8696,28933,15111
-8696,28933,17671
-8696,29445,19207
-8952,29957,20231
-8952,29701,21767
-8696,29701,23047
-7928,30725,24327
-7416,31749,24327
-6904,32005,24839
-6136,32261,25351
-5368,-32763,25863
-4856,-31739,25863
-4856,-31739,24839
-4856,-31739,24327
-4344,-31739,23303
-4344,-31227,22023
-3832,-30971,19719
-3320,-30459,18183
-2552,-30459,16135
-2552,-30715,13575
-2552,-30715,11271
-2808,-30715,10247
-2808,-30459,6151
-2040,-30971,3591
-2040,-31227,1543
-2552,-30971,-761
-3065,-31227,-2809
-3321,-31739,-3833
-3577,32261,-5113
-3321,32261,-6649
-3833,32517,-7673
-4601,32517,-8441
-4601,32517,-9465
-4345,32517,-10489
-4345,32517,-10745
-4601,32517,-11001
-4601,31749,-11001
-4601,31493,-11513
-4345,31237,-11513
-4345,31237,-11769
-4601,31493,-11769
-4089,31749,-12537
-3833,31493,-12537
-3833,31749,-12537
-4601,31749,-12281
-4601,31493,-12537
-4345,31237,-12025
-3833,31237,-11257
-4089,31237,-11257
-4089,32261,-11257
-3833,32517,-11769
-3833,32517,-12025
-3577,-32763,-11769
-4089,32517,-11001
-4089,32517,-11001
-4345,32517,-11257
-4601,32517,-11001
-3577,32261,-11001
-3321,32261,-11257
-4345,32517,-11257
-4089,-32763,-11001
-3833,-32763,-11001
-3321,-32763,-11257
-3321,-32507,-11257
-3577,-32507,-11257
-3577,-32763,-11257
-3577,32261,-11513
-3833,32517,-11513
-3577,32261,-11257
-3577,32005,-11257
-3833,32005,-11769
-3833,31749,-11513
-3577,31493,-11769
-3065,-32507,-12025
-2809,-30971,-11257
-1529,-29947,-9465
-761,-30203,-7161
-1017,-30203,-5881
-1017,-29435,-5113
7,-28154,-4857
519,-27898,-4345
775,-26874,-4345
519,-25850,-6393
775,-26106,-9209
1031,-26874,-11001
775,-26874,-12025
-249,-26619,-12025
7,-26618,-12281
263,-27642,-12025
-249,-30203,-11257
-2297,-31995,-11257
-3833,32005,-12025
-4345,30725,-12281
-4345,29189,-12025
-4857,28933,-12025
-5369,28677,-12537
-5113,28677,-12793
-5113,28933,-12793
-4857,29189,-12793
-4601,29189,-12793
-4345,29189,-12793
-3833,28933,-13561
-4089,28421,-13561
-4345,28421,-13305
-4601,28677,-13305
-4345,28421,-13305
-4345,28165,-12793
-4857,27909,-11513
-4601,27909,-8697
-4345,28165,-5369
-4601,28165,-3321
-4857,28165,-3833
-3321,28677,-11001
-1529,28933,-24825
1287,30726,25095
4103,-32506,9479
6663,-31226,-6393
8710,-28922,-21753
10246,-22522,27911
12550,-16122,11783
16902,-9466,-1529
18181,-7418,-5625
26885,8454,-10488
31493,12294,8
-31738,8198,18696
32262,-3578,-25081
24838,-19194,-5113
14086,-28666,10759
4615,-32506,23047
519,31494,31751
-1529,30725,-26361
-2809,30469,-18937
-3321,30469,-12281
-4089,28677,-6905
-4601,26629,-4345
-5881,26373,-3833
-6649,26629,-3065
-6649,26629,-1017
-6393,26629,-505
-6393,25861,-505
-6905,25605,519
-6904,25861,1543
-6648,26373,2311
-6648,26117,2311
-7416,25605,3079
-8696,25093,4359
-8696,25093,5127
-8184,25605,6151
-7928,26117,6919
-8184,25861,8199
-7672,26117,9991
-7672,26629,11271
-7672,26629,12807
-7672,26885,15111
-7416,26885,17159
-7928,27141,18695
-8184,28421,20231
-7672,28421,22023
-7416,28165,24071
-6904,28421,26119
-6904,29189,27143
-6904,29445,28935
-6648,30213,30983
-6904,30469,31495
-6392,30469,32007
-5112,30981,-32249
-5112,31493,-31737
-5112,32517,-31993
-4344,-32507,-31993
-3064,-32507,-32249
-3064,-32251,32263
-3064,-31227,31751
-2808,-30203,30215
-2040,-30203,28679
-1016,-29947,26887
-504,-29947,24071
-248,-30203,21767
-248,-30203,19719
-1016,-30203,16903
-1016,-29947,13831
-1016,-29691,10759
-248,-29691,8199
8,-29434,5895
8,-29690,4103
-248,-30203,1543
-248,-30203,7
8,-30458,-761
-249,-30715,-2041
-249,-31483,-3321
-761,-31995,-4345
-761,-31995,-5369
-1017,-31995,-6137
-505,-31995,-7161
-249,-31739,-7417
-761,-32507,-7673
-761,-32763,-7929
-1017,-32763,-8441
-761,-32507,-8441
-1017,-32251,-8185
-1017,-32251,-8441
-505,-32251,-8441
7,-31994,-8697
7,-32250,-8697
-505,-32251,-8441
-505,-31995,-7929
-249,-32507,-7417
-249,-32507,-7673
-249,-32251,-7673
-249,-32251,-7417
-249,-32251,-7417
-249,-32507,-7673
-249,-32251,-7673
-249,-32251,-7161
-505,-32251,-7161
-505,-32251,-7417
-761,-31995,-7929
-1017,-32251,-7929
-761,-32251,-8185
-249,-31995,-8185
-249,-31995,-7929
-505,-32763,-7673
-1017,-32763,-8185
-1017,-32763,-8697
-761,-32507,-8953
-761,32261,-8697
-1017,32261,-8953
-1017,32005,-8953
-1017,31749,-9209
-761,32261,-8697
-1017,32261,-9209
-1273,32005,-9465
-761,31749,-9465
-761,31749,-10233
-249,-32763,-10233
7,-31738,-8953
7,-31482,-7929
519,-30970,-6137
1799,-29690,-4857
1799,-29434,-4089
2055,-29178,-3321
2311,-28666,-2553
2823,-27386,-2809
3591,-25594,-3065
3591,-25594,-4857
3079,-26362,-7417
2311,-26362,-9209
2311,-26106,-9209
2055,-26106,-9465
2311,-26106,-9465
2311,-27898,-10233
1543,-30714,-9977
519,-31994,-9465
-1529,32005,-9465
-2553,29701,-9721
-2809,28677,-9977
-2809,28421,-10489
-2553,28933,-10745
-2553,29701,-10745
-2553,29445,-11001
-2553,29189,-11257
-2297,29445,-11257
-2041,29701,-10745
-2041,29701,-10489
-1785,28933,-10745
-2297,28677,-10745
-2809,28677,-10489
-2809,28421,-9721
-2553,28421,-7161
-3065,28677,-2809
-3833,28421,263
-4088,27909,-1017
-3577,28165,-2553
263,30470,-22521
2567,31750,25863
4615,-32506,9479
7431,-29690,-4857
10246,-27130,-18169
11014,-22778,-30457
11782,-16122,21511
14598,-10490,6663
17926,-5370,-4345
20485,518,-8696
23301,7686,-5368
27141,12038,7176
31238,8454,24584
32006,-762,-21753
25862,-15610,-3833
16902,-27386,12039
8199,-32250,24583
2567,32006,-31481
-249,31493,-24057
-1273,30469,-16889
-1529,29701,-10233
-2809,28421,-4857
-4089,26885,-1273
-5369,26117,-505
-5369,25861,-249
-5113,25605,1287
-5112,25605,2055
-5368,25861,2567
-5880,25861,3591
-6136,25605,4359
-6136,25349,5383
-5880,25605,6151
-6392,25349,6663
-6648,25349,7943
-6648,25605,8711
-6648,25861,9735
-6648,25861,10759
-6392,25605,12295
-6392,25605,13831
-6904,25349,15623
-7160,25861,17159
-7160,25861,19207
-7416,25349,21255
-7672,25093,23047
-7160,25605,24839
-6648,26373,26887
-6648,26629,29191
-6648,26629,30983
-6136,26885,32007
-5880,27653,32519
-5624,28421,-30713
-5624,28165,-30201
-5368,27909,-29945
-5368,28933,-29433
-5368,29189,-29177
-5368,29189,-29177
-4600,29701,-29433
-4600,30213,-30201
-4344,30725,-30969
-3576,30981,-32505
-2808,30981,31495
-2552,31493,29703
-2296,32005,27399
-2296,32261,25607
-2552,32261,23559
-2296,-32763,20743
-1528,-32763,17671
-504,-31995,14599
-504,-31739,12039
-504,-31483,8967
8,-31482,6407
8,-31482,4103
-248,-31483,2055
-248,-31739,519
8,-31994,-249
-249,-32251,-2809
-505,-31995,-4089
-249,-32251,-5369
-249,-32251,-6137
-505,-31995,-6393
-761,-32251,-6649
-505,-32763,-6905
7,-32762,-6905
7,-32506,-7417
-505,32517,-7417
-505,32261,-7161
-761,32005,-7161
-761,32261,-7929
-761,-32763,-7929
-1017,-32507,-7929
-1017,-32507,-6905
-761,32261,-6905
-761,32517,-6905
-1017,-32507,-7161
-1017,-32507,-6905
-761,-32251,-6905
-761,-32763,-7161
-1273,32261,-7161
-1273,32261,-6649
-1273,32261,-6137
-1273,32261,-6137
-761,-32507,-6393
-505,-32507,-6649
-249,-32763,-6905
-761,-32763,-6905
-1273,32517,-7161
-1785,32261,-7161
-1785,32261,-7161
-1529,32005,-7161
-1017,32261,-7417
-1017,31749,-7929
-761,32005,-8185
-761,32005,-8185
-1017,32261,-8441
-1017,32005,-8441
-761,31493,-8441
-1017,30725,-8697
-1273,31237,-8953
-1529,31493,-8953
-761,31493,-9209
-249,31749,-9721
-505,31749,-9465
-1017,31749,-9209
-1017,32517,-8697
-761,-32507,-8185
263,-30202,-5625
775,-29690,-4601
1543,-29690,-3577
1287,-29690,-3065
1799,-29178,-2553
2823,-28154,-2297
2567,-27130,-3065
2311,-27130,-5369
2823,-26874,-7161
3335,-26618,-8953
3591,-26874,-9465
3335,-27130,-9721
2567,-28154,-9465
1031,-29946,-9209
519,-31994,-9465
-1017,32261,-9465
-2553,30725,-9209
-3065,29957,-9209
-3321,28933,-9721
-3321,28933,-9977
-2809,28677,-10745
-2553,28677,-10745
-2553,28421,-10745
-2809,28421,-10745
-2809,28677,-10745
-2553,28677,-10745
-2041,28933,-11001
-2041,28165,-10745
-2041,28165,-10745
-1785,28421,-10745
-2297,28421,-11001
-2553,28421,-11001
-2041,28421,-10745
-1785,28677,-10745
-1785,28677,-10233
-2041,28165,-10233
-2553,27909,-9977
-2297,28165,-9977
-2297,28677,-9721
-2553,28421,-9209
-2809,28421,-7929
-2553,28677,-5113
-2809,29957,-1785
-2297,31493,-1529
1031,-29434,-8697
6919,-17402,-27129
14855,-2554,10247
22023,5638,-18168
27398,5638,28424
29190,5126,23560
18182,-22010,31239
8198,30470,-15097
1798,28166,3847
1031,28422,18439
1799,29958,30215
1543,30214,-26105
-249,29957,-17657
-1785,29701,-12025
-2041,28677,-10233
-2041,27141,-9465
-2041,27141,-8441
-2297,27397,-7673
-2041,27653,-7161
-2297,27141,-7161
-3065,26117,-5881
-3065,26373,-5369
-2809,26885,-5625
-2809,27141,-5625
-2553,27141,-5369
-2553,26885,-5369
-2297,27141,-5369
-2041,28165,-5625
-2297,28421,-5625
-2297,27653,-5369
-2553,27653,-5369
-2553,27909,-5625
-2041,28165,-5625
-1273,28933,-5369
-1529,29445,-5113
-1273,29701,-4857
-1017,29445,-4345
-1017,29957,-3833
-505,30981,-3577
-249,31493,-3065
775,32006,-2553
1287,32006,-2297
1799,-32762,-1785
2311,-31994,-1017
2567,-31738,-249
2823,-31738,519
3592,-30714,1543
3336,-29690,2055
3336,-29434,2311
4360,-29434,2823
4872,-28922,3335
4872,-27642,3591
4872,-27898,3591
5640,-27642,3335
6152,-27386,3591
6152,-27386,3591
6152,-26874,2567
5896,-26106,1543
5896,-26106,775
6152,-25850,-249
5895,-26874,-1017
5127,-26874,-1529
4359,-26618,-3065
4103,-27130,-4345
4103,-27642,-4601
3591,-27898,-4857
3079,-28154,-6137
3079,-28666,-6905
2311,-29690,-7161
1799,-30458,-7161
1287,-30714,-7161
1031,-30970,-7673
1031,-31738,-8185
775,-31738,-8441
1031,-31482,-8697
1287,-31482,-8953
1031,-32506,-8953
7,32518,-8953
-249,-32763,-9209
-249,-32507,-8953
7,-32506,-8441
7,-32762,-8697
-249,32517,-8697
-249,32517,-8441
7,32518,-8185
7,32518,-8441
263,32518,-8185
775,32518,-7673
519,32518,-7673
519,-32762,-7673
1031,-32762,-7417
1031,32518,-7161
775,-32506,-7673
775,-32506,-7417
775,-32762,-7417
1031,-32762,-7673
1031,-31994,-7673
1287,-32250,-7929
1287,-31994,-7929
1287,-31994,-7673
1287,-31994,-7929
1031,-32250,-8441
1287,-32762,-8185
519,32518,-8185
775,-32762,-8185
775,-32762,-7929
519,-32506,-7929
775,-32506,-8185
775,-32506,-8441
1031,32262,-8697
7,32006,-9209
-249,32005,-8953
-505,32261,-8953
263,32518,-8953
519,32518,-8697
775,-32250,-8697
1543,-30970,-8185
2567,-29690,-6393
2823,-29690,-3577
2567,-29690,-249
3335,-28410,4871
3848,-26618,10503
4360,-25594,11783
5128,-24570,4871
7432,-23034,-12281
10503,-21498,30215
12295,-20730,7175
14855,-18682,-11513
16902,-15610,-26361
18438,-10746,25351
19206,-8698,21255
20486,-1018,-4601
20229,2310,-17400
20229,3334,-23544
17925,6,-23800
15365,-6906,-15609
13317,-14074,-2553
10501,-21242,11783
5638,-27642,25095
262,-30970,-25849
-3834,32005,-12025
-5882,30981,-505
-6650,30981,10247
-7673,30469,18695
-7161,29189,27143
-4345,29189,-30457
-761,29957,-23289
263,30214,-15865
263,28934,-8953
-249,27141,-2553
-505,26629,1799
-2296,26885,4871
-3832,26629,7943
-3832,25349,9991
-3832,25093,11271
-4088,25093,11783
-4600,24837,14343
-5112,24325,15879
-5112,24581,17415
-5112,24581,18951
-5368,24837,21511
-5624,24837,24071
-5624,24581,25607
-5880,24069,27655
-6392,24069,30215
-6648,24325,32519
-6392,24069,-30457
-6392,24581,-28409
-6648,24837,-25593
-6648,24837,-22265
-6136,24837,-19449
-5624,24581,-17145
-5112,24581,-15097
