10503,21254,-22265
11271,21254,-22265
11271,21510,-22009
11527,21510,-22265
11271,22022,-22777
11271,22278,-22521
11527,22022,-22777
11527,22022,-22777
11271,20998,-22777
11015,20486,-22777
10759,19974,-22265
11015,19718,-22009
11015,20486,-22009
11015,20486,-22009
11271,19974,-21241
11015,19974,-20473
11015,20230,-20473
13575,27142,-23289
17159,-23802,-30201
22023,1798,21000
26887,-24058,520
-31737,26374,-25079
-21754,17926,12810
-11514,6150,-12533
-3835,-31482,-32757
1541,-30713,19979
2565,-1017,21002
-3579,1542,-29942
-15867,6,-4855
-29947,15110,22024
23302,-13562,-19449
16134,-23802,775
13575,-27386,6919
7431,28422,25607
7431,23046,30983
7943,17670,-30969
7943,12550,-27385
7175,9990,-24057
6919,9734,-22009
7175,10246,-20473
7431,9478,-18681
7175,8198,-17657
6919,7942,-17401
7175,7942,-17401
7175,7430,-16633
7175,6406,-15865
7431,5894,-15865
7687,7174,-16121
7687,7174,-15353
7431,6662,-14585
7687,6662,-15097
7943,6662,-15097
7687,6918,-15353
7943,6662,-14841
8711,6918,-13817
8455,5638,-13049
7687,5638,-12793
7431,5382,-12537
7431,4614,-12281
7175,4614,-11257
7431,4358,-11257
7175,4358,-10745
6919,4102,-10489
6919,3334,-10489
7431,2822,-9977
7687,2566,-9465
7943,2566,-8953
7687,1542,-8953
7431,262,-8953
7431,262,-8697
7431,518,-8953
6919,6,-10233
6663,-762,-11514
6663,-762,-12282
6919,-506,-11770
7943,-506,-11770
8455,-506,-12026
8455,6,-12025
8455,1542,-11769
8455,3078,-12281
8711,3078,-12025
8967,4358,-12025
8967,5126,-12281
9479,8966,-12281
9735,10502,-12537
10759,12038,-12793
11015,14086,-13049
11015,16390,-14329
11015,18182,-15609
11271,19206,-15865
11527,19462,-16121
11527,20998,-16633
11271,22022,-17401
11271,21766,-17657
11527,21766,-17657
11527,22022,-17913
11015,21510,-18169
10503,20998,-18169
10503,20230,-17913
10247,19974,-18169
10503,20230,-18169
10503,20230,-17913
10503,20486,-17913
10247,20230,-17913
10247,19974,-17913
10503,18438,-17145
10759,18438,-16889
10759,18694,-16633
10503,18694,-16633
10247,17670,-16377
10247,17414,-16377
9735,17414,-16377
8967,16134,-17401
8967,15366,-18169
8967,15366,-18937
8711,15366,-19705
8455,15366,-19961
8455,15878,-20985
8455,16646,-21497
9479,17670,-21497
9735,17670,-21497
9479,16902,-20473
9735,17158,-19961
9735,17158,-19449
9479,17158,-19449
9223,17926,-18681
9223,18438,-17913
9479,18694,-17657
9479,18694,-17913
9479,18950,-17913
8967,18950,-17913
8967,18950,-17913
9223,19206,-17913
9223,19718,-17145
8967,19974,-17401
8967,20230,-17657
10247,21510,-18425
11527,24326,-20729
11783,28422,-23545
13063,-31738,-25593
15879,-24826,-28665
18695,-16890,32263
20231,-9466,25095
20999,6,17160
21255,9734,6408
22279,18182,-5880
23814,25862,-18168
24838,-32506,-31736
26374,-28666,19720
28166,-24826,7944
28934,-23034,-2296
28677,-23546,-9208
28421,-26618,-12280
27653,31494,-12024
24581,21766,-8696
20229,11782,-2296
16645,4614,4616
15878,2310,6664
12038,5638,14088
11526,19462,16904
13830,-27898,19208
17926,-10746,21256
22534,-1274,24328
25350,-1786,31240
26630,-10234,-24312
26886,-30970,-12024
26374,12294,520
23559,-8442,12551
19719,-26106,25095
16647,26374,-28921
14087,17414,-20217
10247,11782,-14073
7431,7942,-8697
6919,4870,-4345
7175,1286,-2553
6407,-506,-1786
5127,-762,-250
5127,-1274,1030
5128,-2554,2310
4872,-3834,2310
5128,-3578,3590
5128,-2810,4870
5128,-3066,5126
4616,-3066,5638
4616,-3066,6150
5128,-3322,6918
5128,-3322,7686
5896,-3578,8454
6152,-4090,9222
5896,-3834,10758
5640,-4346,11782
5640,-4346,11782
6152,-4090,12806
6152,-4090,13830
6408,-3322,15878
6408,-2554,15622
6408,-2298,15366
6920,-2042,16902
7432,-2042,17670
7688,-2298,17414
7944,-2554,16390
7944,-2554,14854
7688,-2298,13830
7944,-2298,12806
8712,262,11271
8456,2054,10503
8200,3590,10503
8456,4102,10247
9736,8454,10247
10760,11014,9991
11016,12806,8967
11272,14854,7687
12040,17158,6151
12552,19206,5127
12552,20742,3591
12552,21510,1543
12808,22278,-249
13319,23302,-1529
13575,24070,-3321
12807,24582,-5369
12295,25094,-6905
12807,25606,-7673
12807,25606,-8697
12807,25606,-9721
12807,25862,-10233
12295,25862,-10745
11783,25350,-11513
11527,25606,-12025
11527,25094,-12537
11527,23302,-12793
11271,22278,-12793
11015,21766,-12793
11015,21510,-13049
11015,21254,-12537
10759,20742,-12793
10247,20998,-12537
9991,20998,-12281
9735,20742,-12537
9991,19974,-12537
9991,20230,-11769
9991,19974,-11001
9991,19974,-11001
10247,19974,-11257
10247,18950,-11001
9735,17670,-11001
9735,17926,-11001
9991,17926,-10745
9735,17414,-10745
9223,16646,-10233
8455,16902,-9465
7943,17158,-9465
7431,16646,-9977
7687,16902,-11513
7943,16902,-13561
8455,17158,-15353
8455,17670,-16889
8711,17926,-17657
8711,16902,-17913
8967,16646,-17401
8967,16646,-17145
8711,16902,-17145
8199,16902,-17913
8199,16646,-17913
8711,16390,-17145
8967,16902,-16377
8967,16902,-16377
8455,16902,-16633
8455,17158,-16633
8455,16902,-16377
8711,17158,-15865
9223,19462,-15865
9223,19206,-16121
9223,18694,-15865
9223,17926,-15865
9223,17926,-15609
9223,18182,-15609
9223,17670,-15609
9223,17414,-15865
9223,17414,-14841
9223,17158,-14585
9223,17158,-14841
9223,16646,-15353
9223,16390,-15097
9479,16390,-15097
8199,14854,-15097
7175,14086,-14841
7431,14086,-14585
7943,14598,-14329
8455,14854,-14073
8711,15366,-13817
8967,14854,-13305
8967,15110,-13049
8711,14598,-12793
8711,14342,-12793
8455,14086,-13049
8455,14342,-12793
8711,14598,-12537
8455,14342,-12025
7943,14854,-11257
7431,15622,-11001
6663,14854,-10745
6663,14342,-10489
6407,14342,-10233
5639,14598,-10489
5383,14854,-11257
5639,15366,-12793
5895,15878,-14841
5895,16134,-15609
7175,16390,-17401
7431,16390,-17913
7687,16134,-18937
7687,16646,-18681
7943,16646,-18681
7687,16390,-18425
7687,15878,-17657
7943,15622,-17145
8199,15622,-16889
8967,16134,-16633
8967,17158,-16633
8967,17158,-16889
8967,16902,-16633
9479,16902,-16633
9479,16646,-15865
9991,18694,-15865
12295,25606,-18681
15111,-26106,-27897
19719,1798,22280
25607,-22266,1800
-32761,27398,-23799
-23034,19206,14346
-13306,5638,-10485
-5371,29702,-29429
-3579,-32250,31243
-507,-12282,30474
-6651,-12026,-18423
-18939,-11258,7688
-32762,5382,-29432
20486,-22778,-4857
12550,-32506,14599
8199,28422,29191
5895,22790,-26361
5383,16390,-20473
5639,11526,-17913
5895,8198,-14841
5639,6406,-10745
5639,5894,-7929
5383,5638,-7417
5639,5894,-6649
5639,4870,-4857
5895,5126,-5113
5895,4870,-6649
5895,4102,-8185
6151,3334,-8697
5639,2310,-8697
4871,2054,-9209
4871,1542,-9209
4871,1286,-8953
4615,774,-8953
4359,262,-9209
4615,6,-8953
4871,6,-7929
5383,-250,-7930
6151,-1018,-8186
6407,-2298,-7930
5895,-2554,-7162
4871,-3578,-6650
4615,-3322,-6394
5383,-3322,-5882
5639,-3322,-5626
5639,-3066,-5626
5639,-2810,-5114
5383,-3834,-4090
5639,-4858,-3578
5895,-5626,-2554
5639,-5114,-2298
5639,-5114,-1786
5383,-5370,-1274
5127,-4602,-506
5127,-4602,-506
5127,-4858,-250
5383,-4858,518
5384,-4346,1286
4872,-4090,1542
4872,-3322,1798
5128,-2810,2054
5384,-1530,2310
5384,6,2311
5896,1030,2311
5896,2054,2311
5640,4102,2055
6152,6406,1287
6920,7942,775
7432,10758,-249
7943,13574,-2553
8711,16134,-4857
9479,17158,-6905
9479,17670,-9209
9223,18182,-11769
9223,18950,-13049
8967,18950,-13305
9223,18950,-13817
9223,18182,-14329
9223,18182,-15353
9223,17926,-15865
10503,17670,-16121
10759,17670,-16121
10759,17158,-16121
10759,16390,-16377
9991,16646,-15865
9223,16902,-15097
9223,17926,-15097
9479,18182,-15097
9991,18182,-14585
9991,18182,-13817
9735,17926,-13561
9991,17926,-13561
9479,18438,-13305
9223,18438,-12281
9223,18438,-11257
9223,17670,-10745
9223,16390,-11001
9479,16390,-9721
8711,16134,-8953
8199,15622,-9209
8199,15622,-8953
7943,14598,-7929
7943,14342,-6905
7943,14598,-6649
7687,13830,-6905
6663,12806,-6649
6663,12550,-5625
6407,12550,-4857
6407,12294,-4857
6151,11526,-5369
6151,11014,-5113
6663,11270,-4857
6663,12038,-4345
7175,13062,-4089
6919,13318,-4601
6919,13830,-4601
7431,14086,-4089
7943,14342,-3321
8199,14086,-2809
8199,13574,-3577
8455,12806,-4345
8455,12550,-5625
8455,13062,-6905
8455,13574,-8697
8455,13830,-10233
8455,14086,-11257
8711,13318,-12025
8711,13318,-13049
8711,13574,-13561
8455,14086,-13817
8199,14598,-13561
8711,14854,-13049
9223,15110,-12793
9223,15110,-12793
8967,15878,-12025
9223,16390,-11257
9735,16134,-11001
9991,15878,-10745
9479,15878,-10745
9479,15878,-10489
9223,15110,-10489
8455,14086,-10233
8455,14342,-9977
8711,14086,-9977
8455,14086,-9721
8199,13830,-9721
8199,14086,-9977
8455,13830,-9721
8455,14086,-9721
7687,13574,-9977
7687,13574,-9721
7943,13062,-8697
7943,13318,-8441
7943,13574,-9209
7687,13062,-10233
7687,12038,-9465
7431,12294,-8185
7431,13574,-7929
7175,13574,-7929
6663,13318,-7673
6663,13318,-7673
6919,13318,-7929
6663,13830,-7929
6919,14342,-7673
7431,14598,-7673
7943,14342,-7673
8199,14342,-7673
8199,14086,-7673
8199,14086,-7161
8455,14342,-6905
8711,15622,-6649
8711,15622,-6649
8455,15366,-6649
8711,15366,-6905
7943,15110,-6393
7687,15110,-5625
7687,14854,-6137
8455,14854,-7929
8455,14598,-10745
8455,14598,-11257
8455,14342,-11513
7943,14086,-12025
7687,14086,-12537
7687,13830,-12537
11271,20998,-14073
14087,-30970,-20473
17927,-3066,29703
23559,-27642,8968
30983,21510,-15095
-25850,10758,24074
-17146,-7930,-1270
-11003,9990,-18933
-7163,3078,-25845
-7675,24582,-19190
-15355,26374,-2295
-27643,-32762,21000
25862,-12538,-18937
15366,29190,3847
8967,24070,20999
4615,20742,-31737
4103,16646,-22521
4615,12550,-16633
5639,7942,-14585
5639,5126,-12281
5639,4102,-9209
5639,3590,-5881
5639,3334,-4857
5383,3078,-4857
5383,2822,-4857
5127,2054,-3833
5383,1542,-3577
5895,1030,-3577
6407,1030,-3577
6407,774,-3577
6663,1542,-3321
6663,1542,-3321
6663,1030,-3065
6407,1030,-2809
6407,1286,-2553
6663,2566,-2297
7431,2566,-1273
7687,2310,-1273
7431,774,-761
7175,518,-249
5895,6,263
5384,-506,774
5640,-2042,1542
5640,-1786,2054
6152,-762,3078
6664,-1018,3334
6920,-1018,3334
6920,6,2567
6920,262,1287
6920,-250,774
6920,-1530,-506
6663,-2042,-1786
6151,-1786,-2298
5895,-1786,-2298
6663,-2810,-1530
7687,-3834,6
7432,-3578,6
6664,-3322,6
6408,-2810,262
6920,-2298,6
7176,-506,-250
7175,1542,263
6920,2054,1031
7432,2054,1031
7944,3334,263
8200,4614,263
8200,5638,263
7944,7686,7
8968,9222,-1017
9991,10758,-2041
10247,12038,-3065
10503,13062,-3833
10503,14086,-4345
10247,14854,-5625
10247,14854,-5881
10503,15622,-6137
10503,16390,-6137
10759,16902,-6905
10759,18182,-7161
10759,18182,-7417
10759,17158,-7417
10759,16390,-7161
10759,15878,-7161
11015,15622,-7417
11015,16134,-7161
10759,16902,-6905
10247,16902,-7161
10503,16390,-7417
9735,15110,-6649
9479,15110,-6137
8967,15110,-5625
9223,15110,-5113
9223,14598,-4345
9223,14854,-4089
9479,15366,-3833
9479,15110,-3833
9223,14854,-3833
8455,14086,-3833
8199,12806,-3577
8455,12806,-4089
7943,12550,-7417
7943,12806,-7929
7687,12806,-7929
7431,12806,-7673
7687,13574,-7929
7687,14598,-7417
7431,14598,-7161
7431,13830,-6649
7687,13830,-6393
7943,14086,-6649
7943,13574,-6649
8455,12806,-6393
8711,12294,-6393
8455,12550,-6649
8199,13062,-6649
8455,12806,-6393
8711,13318,-6393
8967,13318,-6393
9479,13574,-7161
9479,13318,-7161
9479,13318,-7417
9479,13318,-7161
9479,13318,-7417
9223,13062,-7417
9223,13318,-7417
9479,13318,-7417
9479,13062,-7417
9223,14086,-7161
9223,14598,-7161
9223,14342,-7417
9735,14342,-7929
9735,14342,-7929
9223,15110,-7417
8967,15622,-7161
8711,15110,-7161
9479,14598,-7161
9735,14342,-7161
9479,14086,-6137
8967,14342,-5881
8455,14086,-6137
8711,14086,-6137
8711,14598,-6137
8967,14598,-6905
9223,14854,-7929
9223,15110,-8441
9735,15622,-8697
10247,15366,-8953
10503,15366,-9721
10247,15110,-9465
9991,15110,-9465
9479,15110,-9721
9735,16134,-9721
9735,16390,-8953
9479,16390,-8697
9223,15622,-8697
9735,15110,-8697
9991,15366,-8441
10247,15878,-7929
10247,16390,-8185
10503,16390,-8441
10503,16134,-8441
9735,16134,-8185
9479,17158,-8185
9735,17414,-7673
9991,17158,-7161
9991,16646,-7417
9991,16902,-7161
9991,17670,-6905
10247,18182,-7161
10759,17670,-7417
10759,17926,-7417
10759,17414,-7161
10759,17670,-6905
10247,17670,-7161
9991,17926,-7161
10503,17414,-6393
10503,17670,-6137
10247,18182,-6137
10759,19206,-6137
11015,18950,-5881
11015,18438,-5625
10503,17670,-5369
10247,17414,-5625
9223,17158,-6393
9223,17158,-7417
9991,17414,-8441
9991,16902,-9465
9991,16134,-10489
9991,15110,-10489
9735,15110,-10745
9735,15366,-10745
9991,15622,-11257
9991,14854,-11769
9991,14598,-12025
10503,14598,-12025
11015,14854,-12281
10759,14854,-12281
10503,15110,-12025
10503,14086,-11769
10503,13830,-11769
10759,14086,-11769
10503,16390,-11769
11783,18438,-12025
13831,25606,-14585
17671,-24570,-23545
21511,4358,26376
26119,-20218,6152
-32505,27654,-18167
-24058,14598,21770
-15098,-8954,-246
-8187,8710,-16373
-5371,-3578,-21238
-6395,17670,-14582
-14587,22534,2825
-26362,-31226,27912
27398,-5882,-12281
18182,-25338,8967
12295,-31738,25863
9223,29190,-27641
8199,22534,-18937
8455,17670,-14585
8199,13318,-12537
8199,11014,-9465
8455,10502,-5113
8455,10758,-4345
8199,8454,-3065
7687,7430,-2041
7687,6662,-1017
7687,5894,-505
7175,5126,-1273
6919,4358,-2041
6919,4358,-2041
6919,4614,-2809
6663,3846,-3577
6663,3590,-4089
6919,3590,-4089
7175,3334,-4089
7431,3078,-4601
7687,2822,-4857
7687,1798,-5113
7175,1542,-4857
7175,1798,-4089
7687,1286,-4345
7943,1542,-4345
7943,2054,-4601
7687,2310,-4089
7431,2054,-4089
7175,2310,-3065
7175,774,-2041
7431,518,-2041
7687,2310,-1529
7431,2310,-1273
7431,2054,-1017
8199,2566,-505
8199,2822,7
7944,3590,775
7432,4358,1543
7432,4358,1799
7944,4614,1799
7944,4614,2311
7944,4870,3079
7944,5638,3079
8200,6662,3079
8712,6662,3591
8712,6918,3847
8712,7942,3847
8968,8198,3847
9992,8710,4103
10504,9734,4103
10248,11014,3847
10248,12806,3079
10504,14598,2311
11016,16390,1031
10760,17670,1287
10504,18182,1031
10504,19718,7
11016,20230,-249
11015,20230,-761
10759,21254,-1785
10759,21254,-3321
11527,21254,-5113
12295,20486,-6649
12295,19974,-8697
12295,20230,-10233
13063,20230,-12025
13063,19974,-13049
12295,19718,-13561
12295,19462,-13817
12039,18950,-13561
12295,18182,-13305
12039,18694,-13305
12039,18950,-13305
11783,18694,-13305
11783,18182,-13049
11527,18950,-12025
11527,19718,-12281
11015,19974,-12537
11015,20742,-11769
11271,20486,-11001
11015,20486,-10745
10247,20230,-9977
9991,20486,-9721
9735,20230,-8953
9735,18950,-8185
8967,18950,-8185
8711,18694,-8185
8711,18182,-7161
8711,17926,-6649
8711,17926,-6393
9223,17670,-5881
8967,17414,-5369
8711,17414,-5113
8455,17158,-5113
8199,16646,-4601
8967,16646,-4857
9479,16902,-4601
9479,16390,-3321
9223,16134,-2809
9223,16134,-3065
9479,16902,-2809
9479,17926,-2553
9223,18182,-1785
8967,18182,-1785
8967,18438,-2041
9223,18950,-2553
10247,19462,-2809
10759,19462,-2553
10503,18694,-2809
10503,18438,-3833
10759,17926,-5369
10247,17926,-7161
9991,18694,-8185
9735,18950,-8953
10247,18950,-9721
10247,19206,-9977
10247,19206,-9977
10247,19206,-9721
9735,18694,-9977
9479,18950,-9721
9735,17926,-9977
9735,17670,-9977
10503,17926,-9721
11015,18182,-9209
10759,18182,-9465
10247,18182,-9465
10503,17926,-9721
10247,17414,-9465
9479,17158,-8953
9223,17414,-8441
9479,17926,-8441
9735,18438,-8185
9735,18438,-8441
9479,18438,-8953
9223,19462,-8953
9223,19462,-9209
9991,19718,-8697
9991,19718,-8697
9735,19718,-8441
9735,19974,-8185
10247,20742,-9209
10503,20486,-9209
10759,20998,-8953
10759,21254,-8697
10503,21254,-8185
9991,20742,-7673
9223,19718,-7161
9479,19462,-7161
9479,19462,-7417
9479,19206,-7417
9735,18950,-7417
10247,19206,-7673
10247,19206,-7417
10503,19462,-7417
10247,18950,-7161
10247,18694,-7929
10759,18694,-9209
11015,19206,-9721
10503,19462,-10489
9991,19462,-10745
9991,19718,-11513
10759,19974,-11257
10759,19462,-11257
10759,19206,-11513
10503,18950,-11513
10759,18950,-11257
10759,18438,-11001
10503,18182,-11513
10503,18182,-11769
10503,17926,-11769
9991,17158,-11513
9991,17158,-11001
11271,18694,-12025
14599,25606,-14841
17415,-24570,-23033
20231,1030,28168
25863,-24058,7944
-31993,24838,-16887
-23802,13318,22794
-15354,-5626,778
-12794,5894,-5365
-2811,11014,-24565
-2811,-27130,-21750
-10747,-23802,-4855
-23035,-18682,19976
30214,1798,-19960
20742,-21754,2311
12295,-30458,20231
8199,31238,-31737
7687,26118,-22265
7943,21254,-18425
7943,16902,-15097
8199,12806,-11257
8199,9734,-7417
8199,9734,-5881
7687,9222,-4857
7431,8966,-2553
7943,8198,-1273
7943,7942,-1529
8455,8198,-2041
8199,8198,-2297
7687,6918,-1529
7431,6150,-1017
7431,6150,-1785
7175,6150,-3321
7431,5894,-4089
7687,5382,-5369
7943,5126,-5625
7943,5126,-6393
7943,5382,-6649
7687,4870,-6137
8455,5126,-5881
9479,4102,-5113
9479,4102,-4857
8967,3846,-4345
8967,4358,-3833
8967,5382,-3833
9223,6150,-4089
9735,5382,-4089
9991,5382,-3833
10759,5126,-3321
10503,5126,-3065
10503,5382,-2809
10503,5638,-2297
10759,6150,-1017
10759,6662,-249
10759,6406,-249
10759,5894,7
10504,5126,263
10504,4614,775
10760,4614,775
10760,4358,1287
10504,4614,1543
10248,4614,1543
9992,4614,1543
10504,4870,1287
11272,5382,1287
11016,6150,2055
10760,7430,2055
11272,8454,1543
11784,11014,-249
12551,13062,-505
13063,15110,-505
13319,16390,-1273
13575,17670,-3065
13831,19206,-3577
13831,20230,-3577
13575,20230,-3321
13319,21766,-3833
14599,23046,-4857
14855,24070,-6137
14855,24326,-7161
14599,24070,-8697
14343,23558,-10489
14343,23046,-11257
14343,23302,-11513
14599,23046,-12793
15367,22790,-13561
15623,22790,-14329
15879,23046,-14329
15623,23046,-14329
15111,22534,-14585
14855,22790,-14585
15111,23046,-14585
15111,23046,-14329
15367,23302,-13817
15367,22790,-13817
15623,22022,-13305
15367,21766,-12537
14599,21254,-11257
14087,19718,-10489
13831,19206,-9977
13831,18950,-10233
13575,19206,-9209
13575,19462,-8953
13831,19718,-8953
13575,19718,-8953
13319,19974,-9209
13575,19462,-8441
13319,18950,-7673
12551,18182,-7417
12551,17158,-7673
12295,17670,-7673
12551,17926,-6905
12551,18182,-6905
12807,18182,-7161
12807,17926,-7161
12551,18438,-6649
12807,19718,-6649
13063,19718,-6393
13319,19462,-6393
13063,19462,-7161
12551,19462,-8185
12807,19974,-7929
13063,20230,-7673
12807,19462,-7417
12807,19462,-7161
12295,19462,-6905
12295,20230,-6393
12551,20486,-6649
12551,20486,-6649
12295,20230,-6393
12039,20230,-7673
12039,20486,-9209
12039,20742,-11001
12295,20742,-11001
12295,19974,-11513
12295,19974,-12537
11783,19718,-13049
11527,18694,-12793
11527,18438,-12537
12039,18694,-12537
12039,18182,-12537
11783,17926,-11769
12039,18182,-11257
12807,18694,-11257
13063,19462,-11257
13319,20742,-11513
13319,20742,-11769
13575,20998,-11513
13575,20998,-10489
13575,20742,-10233
12807,20230,-10745
12551,20742,-11001
13575,20998,-11001
14087,20742,-10745
14087,20742,-10745
13319,20742,-11001
12807,20742,-10489
13575,22534,-10233
13831,23046,-10233
13831,22534,-11001
13575,22534,-11001
14087,22790,-11257
14343,23814,-11257
14599,24070,-10489
14343,24070,-10233
14087,23814,-10745
13831,23046,-10745
13575,23046,-10489
13575,23558,-10489
13831,23814,-10489
14343,23814,-10489
14599,23302,-9465
13831,22534,-8953
13575,22022,-8441
13575,21766,-8185
13319,20998,-7673
13319,21766,-7673
15367,27398,-9721
18695,-25850,-17401
22279,-3834,-31737
27911,-32506,13576
-30713,12294,-12535
-23034,774,24586
-20474,18950,15882
-4858,20742,-22005
1029,25351,31499
2309,-4601,30986
-2555,1798,-21238
-13563,2822,2569
-26618,16902,30472
26630,-15098,-9977
18182,-25850,9479
13575,-29946,24327
11015,29446,-29945
9991,24070,-23545
10503,19718,-20473
11015,14854,-17145
10759,12294,-13049
11015,12038,-10233
10503,12550,-8953
10247,12550,-8441
10759,12038,-7673
11527,11270,-7161
11527,11526,-6905
11015,11526,-6649
10759,11782,-6393
10759,11782,-4601
11015,12038,-4857
11271,12038,-5113
11271,12294,-5113
11271,12038,-4601
11271,11782,-4089
11271,9478,-4089
11271,8454,-4089
11271,8710,-3833
10759,8966,-2809
10503,9222,-2553
10503,8710,-2553
11015,7686,-2041
11015,6918,-2041
11015,6662,-1017
9991,5382,-505
9223,3846,-249
9991,4102,519
10248,4102,519
9992,3334,-249
10503,3334,-2553
11015,2822,-4345
11015,2310,-4345
10759,2054,-4345
10759,2054,-4601
10759,2310,-5113
10759,2310,-4857
10759,2054,-4345
11015,2054,-4345
11015,2566,-4345
10247,2566,-3833
10247,3590,-3321
10503,4870,-2553
10759,5638,-2297
11015,5638,-2297
11015,7430,-2553
11271,8966,-2553
11783,11014,-2553
12295,13062,-2553
12551,15622,-4089
12807,17926,-5369
13319,20230,-5113
13831,21510,-5369
13831,22278,-6137
13575,23046,-6905
13575,24838,-6905
13831,24582,-7417
14343,24838,-7161
14087,25350,-8185
13831,25606,-8697
13831,25606,-8953
13575,25350,-8697
13831,25350,-8185
13831,25094,-8441
13575,25350,-8441
13319,25606,-8185
13319,25862,-8441
13831,25606,-8441
13575,24582,-8441
13319,23814,-8185
13063,22790,-8441
12807,21766,-8953
12551,20998,-9977
12295,20998,-10745
12295,20998,-12025
12295,20998,-13561
12551,21254,-14329
12807,21254,-14585
12807,20998,-14841
12551,20998,-14585
12807,20486,-14329
12807,18950,-14073
12551,19206,-13817
12295,19206,-13049
12039,19462,-12793
11783,19462,-12537
11527,20230,-12025
11527,20998,-11769
12039,21510,-11001
12039,20742,-11257
12295,20742,-10745
12551,20742,-10489
11783,20486,-10233
11783,20742,-9977
12039,21254,-9465
12039,21510,-9465
11783,21510,-8697
12039,21766,-8441
12295,22278,-8697
12295,23558,-8185
12039,23302,-7929
12295,23558,-7929
12039,23046,-7929
11783,22790,-7929
12295,23302,-7161
13575,23558,-7161
13575,23814,-7417
12807,23814,-7417
12807,23558,-7673
12807,24326,-7673
12807,24326,-7417
12807,24070,-7673
12551,23558,-7673
12551,23302,-6905
13063,22534,-7161
12807,21510,-8185
12551,20486,-9465
12807,20230,-11001
13063,20486,-11769
12807,20998,-12281
12551,22534,-13049
13319,22790,-13561
14087,22534,-14329
13831,22790,-14073
13063,21254,-14329
12807,21254,-14329
12807,21510,-13561
12551,22022,-12793
12551,22790,-12793
12295,22534,-12537
12039,22534,-12537
12039,21766,-12537
12295,20486,-11769
12551,19718,-11001
11783,19718,-10745
10759,20486,-10745
10759,21254,-10489
11271,21254,-10233
12039,20998,-10233
12295,20742,-10233
12039,20742,-10233
11271,20230,-9977
10759,20486,-9721
11015,20998,-9465
10759,21766,-8697
10503,22022,-8953
11015,22278,-8953
11527,22022,-8697
11527,22022,-8697
11783,23302,-8953
13319,27910,-8697
16647,-26618,-13817
21255,-6650,-26617
25351,26374,20744
31751,6918,-2295
-25082,-6138,-28407
-14842,-16378,10506
-6394,22790,-13045
5,-32761,-28149
2565,11783,-31221
773,24071,-23030
-9723,22534,-3319
-14587,1798,4873
29446,-5882,-16633
20230,-23034,3591
14599,-27386,18183
10759,-32250,29959
10247,27910,-26873
11015,23302,-22521
11015,18182,-20729
10503,14342,-17145
9479,13574,-13049
9479,13318,-11513
9735,13062,-11769
9735,12038,-10489
9479,10758,-8697
9223,9222,-7929
9479,9222,-8185
9223,8966,-8185
8967,8198,-7161
9479,7942,-5881
9735,7942,-5881
9991,7942,-6137
8967,7430,-5369
8967,6918,-4857
8455,7174,-4345
8455,7174,-4089
8455,6918,-3833
8711,6918,-3065
8455,6918,-3321
8199,7174,-3321
8199,6150,-2809
8199,5382,-2297
8199,5382,-1529
8199,6150,-1529
8711,6406,-1273
8967,6406,-249
9223,6150,263
9224,5894,263
9480,5638,263
9480,4358,775
9480,4102,1031
9224,4102,7
9480,3334,-1529
9479,2310,-2553
9735,2054,-2553
10503,2054,-2553
10759,1798,-3321
10759,2054,-4089
10503,1798,-3833
10503,2054,-3577
11015,4614,-3577
11015,5382,-3321
11015,5638,-2553
11015,6406,-2553
11271,9222,-2809
11271,11782,-3321
11783,13830,-3577
12807,14342,-3833
13063,17158,-4089
13319,20230,-4345
13319,21254,-5625
13319,21254,-7161
13575,22534,-6905
13575,24582,-7161
13831,25350,-7417
14087,25350,-7929
14343,25862,-7929
14599,26118,-7929
14599,26374,-8185
14087,26374,-7929
13575,25094,-7673
13063,25094,-7673
12807,25606,-7673
12807,25862,-7673
12807,25606,-7673
12807,25606,-7673
13063,25350,-7673
13063,25094,-7161
12807,24838,-7417
12039,24070,-6905
12295,23046,-6393
12039,23046,-6649
11783,22278,-6649
11783,22278,-6649
11783,21254,-7929
11783,20998,-9977
12039,20486,-11769
12039,19718,-11769
12039,18950,-11769
12039,18694,-13049
12039,18182,-13561
11783,17158,-13561
11527,16390,-12793
11271,16134,-12793
11015,15622,-13049
11015,15622,-12793
11015,16134,-12025
11527,17414,-11513
11527,18950,-11769
11527,18182,-11769
11271,17926,-11257
10503,18438,-10233
10759,20230,-9465
11015,20742,-9721
11015,21254,-9721
11015,21254,-9465
11271,22534,-9465
11271,22534,-9721
11271,22278,-8953
11015,22534,-8697
10759,23302,-8697
10503,23814,-9209
11271,24070,-9209
11527,23558,-8953
11271,23302,-9209
11015,23302,-8953
11271,23558,-8185
11015,24838,-7673
11271,25094,-7929
11271,25094,-7929
11015,25350,-7673
11015,25350,-7929
11015,25350,-7929
11015,24838,-7929
11015,24326,-7417
11015,23558,-6905
11271,23558,-6905
11271,22534,-6905
11271,22278,-6649
10503,21766,-6393
10503,21254,-6137
10247,20998,-5881
10247,20486,-5881
11015,19974,-5113
11271,18950,-5113
11527,19206,-6649
11527,18438,-9209
11527,18694,-11513
11783,18694,-12793
11527,18694,-13305
11271,19462,-13561
11015,19718,-14073
11015,19206,-14585
11783,18694,-14329
11783,18950,-14585
11783,19462,-14585
12039,19462,-14585
11783,19206,-14585
11783,19718,-14329
11527,19974,-13817
11015,19718,-13817
11271,19718,-13561
12551,21254,-13305
12551,21766,-13305
12551,21510,-13561
12807,21254,-12793
12551,21254,-12537
11783,20230,-12281
11527,19974,-12025
11527,19974,-11769
12039,20230,-11257
11783,19974,-10745
11271,20230,-11001
10759,20230,-10745
10759,19974,-11001
11015,19974,-11001
11527,20230,-10745
11783,19718,-10489
11271,19206,-10233
11527,20486,-10489
14855,28166,-13305
18951,-22778,-20985
22535,3334,28936
27911,-20218,8200
-29945,29958,-17399
-19706,21766,21002
-16634,-25594,12810
-2042,31494,-23029
3077,27655,-32501
3589,-11513,-28662
-3067,-11770,-10743
-15611,-10746,15624
-29946,7686,-22008
23302,-19706,2567
16135,-29178,20999
11527,32518,-30713
9479,27910,-22777
9223,22534,-19961
9735,16134,-18169
9991,11526,-16121
9223,9222,-13561
8967,9222,-11257
8967,8966,-10233
9223,8710,-9465
9735,8710,-8441
9735,7686,-8441
9991,7686,-8441
9991,7430,-7417
9223,7430,-6905
8967,7686,-5881
8711,7430,-5625
8967,7430,-5369
9479,6406,-5369
9735,5894,-5625
9479,5638,-5113
8711,5382,-4345
8967,5638,-4089
9223,4102,-3833
8711,3846,-3065
8967,3846,-3065
8967,3590,-2809
8967,3334,-2553
9223,2822,-2553
9223,1798,-2297
8967,2054,-1529
8455,2054,-1017
8199,2054,-249
9223,2054,-249
9991,1798,-249
9991,1030,7
8968,1030,263
8712,1798,519
9992,2054,775
11272,2822,1799
11272,3590,2823
11016,3590,3335
11016,3334,3847
11272,3334,4615
11272,3334,4871
11528,3590,4103
11528,3590,2311
11528,3334,519
11272,3590,7
10760,5126,-1273
10759,6662,-2809
11527,7174,-3577
12039,8198,-3577
12039,11014,-3833
12039,13318,-5113
12551,14854,-5881
12807,15622,-6137
12807,18438,-6137
12807,19974,-7929
12807,20998,-8953
12807,21254,-8953
12551,21254,-8953
13063,22278,-9465
13063,22534,-9977
13063,22278,-10233
13063,22278,-9721
12807,22534,-9721
12807,23046,-9977
12807,22790,-10489
12807,23046,-10489
12807,23558,-10489
12807,23558,-10233
12807,23302,-9721
12807,23302,-9465
12807,23558,-9465
12807,23302,-9465
13063,23302,-8953
12807,22790,-9209
12807,22278,-9465
12807,21510,-9465
12039,21254,-9465
11783,20742,-8441
11527,20998,-8185
11527,20998,-8185
11527,20998,-8953
11527,19974,-9977
11783,18694,-10489
11783,18438,-10745
12039,19462,-10745
11271,19462,-11001
11271,19206,-11001
11271,18182,-10745
11015,18438,-9977
10759,18694,-8953
10503,17926,-9209
10503,16646,-8441
10503,15878,-6905
9479,16134,-6649
9223,16134,-6905
9223,16134,-6393
9223,16134,-5881
9735,16646,-5881
10247,18438,-6649
10247,19974,-7417
10759,20230,-7417
11271,20230,-6393
11527,19974,-6649
11271,20998,-6905
10759,21254,-7161
11015,22278,-7161
11271,22790,-7161
11527,23558,-7161
11783,24070,-6905
12039,23814,-6905
12551,24070,-6905
12295,24070,-7161
12039,24582,-7161
12039,24326,-6905
12295,24582,-6905
12551,25094,-7417
12551,24582,-7929
12807,24326,-8185
13063,23302,-7929
12807,22534,-7673
12551,22534,-7929
12807,22278,-9209
12807,22534,-11001
12807,22534,-11769
13063,21766,-11769
13063,20742,-12793
12551,20486,-13561
11783,19718,-13817
11271,19718,-13817
11527,18694,-14073
11783,18694,-14073
11783,18950,-14329
11527,19718,-14329
11527,19974,-14073
11783,20230,-14073
11015,20486,-13305
10759,20486,-12537
10759,20230,-12793
11271,20230,-12793
11271,20742,-12281
11783,20998,-11513
11783,20486,-11513
11527,19718,-11001
11271,20230,-10233
11527,22022,-10233
11783,22534,-10489
11527,22022,-9977
11783,21766,-9977
11527,21766,-10233
11015,21510,-10233
10503,21510,-9977
10759,21254,-10233
11271,21254,-10233
11015,20998,-10489
11015,20998,-10489
11271,21254,-10233
11015,22022,-9977
11015,22534,-9977
11527,22790,-10233
12039,22534,-10233
12039,22534,-10233
12039,22790,-10489
12039,21766,-10489
11783,20998,-10489
11783,21766,-11257
11527,21510,-12281
12295,22022,-12025
12295,21766,-12281
12551,21254,-12537
12295,21510,-13049
12295,21510,-13305
12295,21766,-13817
12039,21766,-14073
12295,21510,-14073
12551,22022,-14073
12551,22022,-14329
12039,22278,-14329
11783,21766,-14073
11783,22022,-14073
11783,23046,-14329
11527,23814,-14329
11783,24582,-14073
12039,26886,-14585
14599,-31994,-17145
18183,-17402,-24313
22279,8710,27144
27143,-14842,7432
-30713,-29178,-17911
-27642,-12026,-26615
-11002,17670,-5109
-1787,-20474,-25077
3077,-26617,31499
3333,-1273,-30454
-3323,-2042,-13047
-16123,-3322,14088
-30202,13830,-24312
23302,-13562,263
15367,-24570,20231
11015,-29178,-31481
8455,30726,-22009
7943,24838,-16633
8199,19974,-13561
8199,16134,-10745
7943,14342,-8185
8711,14086,-6649
8967,12806,-6393
8711,10758,-6393
8199,9990,-6137
8199,9478,-7673
8455,9478,-8441
8967,9478,-8441
8967,9222,-8185
8967,8454,-8185
8711,7686,-8953
8967,7174,-9721
9223,7174,-9465
8711,7430,-9465
8199,7942,-9721
8455,8454,-9721
8455,8710,-9465
8711,8710,-9465
8711,8454,-9465
8967,8454,-8953
8967,9222,-8185
8967,10502,-8185
8711,10246,-8441
8967,10246,-7929
8455,9990,-7417
8199,9990,-5881
8199,10246,-5369
8711,9990,-5625
8967,9478,-5881
8711,9478,-4857
8455,9222,-3833
9223,9990,-3065
9479,9478,-2809
9223,9734,-1785
8967,8966,-1273
8711,8454,-761
8711,8454,-249
9223,8454,-249
9479,8454,7
9480,8198,775
9480,8198,519
9480,8198,519
9480,9478,1031
9480,10502,1031
9736,11014,775
10760,12294,-505
11015,13830,-1529
10759,15366,-2297
11015,16646,-3577
11783,18694,-4857
12295,20998,-6393
12807,23046,-7929
13319,24326,-9721
14343,24838,-11257
14599,25862,-13305
14343,26630,-14841
14599,27142,-15609
14855,27142,-17145
14343,27910,-17657
13831,28934,-17913
13831,29190,-17913
13575,29446,-17401
13063,30214,-16889
12807,30726,-17145
13063,30982,-16889
12807,31750,-16633
13063,31494,-16633
13063,31494,-16121
12295,31494,-15353
12039,31750,-14585
12295,31750,-14585
12551,31750,-14585
12807,31238,-14073
12551,31238,-13561
12039,30982,-12537
12039,30982,-11513
12295,30214,-11257
12295,30214,-10745
12551,29702,-10489
11271,29190,-10233
10759,27910,-10233
11015,27142,-9465
11015,26374,-8953
10759,25606,-8441
10247,24326,-7417
10503,24326,-7417
10247,24070,-7161
9991,23302,-6905
9991,22278,-6905
10247,21766,-6649
9735,21510,-6649
9223,20998,-6905
9479,20742,-6649
9735,20742,-7417
9479,20486,-8953
9735,20486,-9977
9479,20230,-10489
9479,19974,-12025
9735,19718,-13817
9735,19974,-14585
9479,21766,-14841
10247,21766,-15353
11015,22790,-15609
11271,23814,-15865
10759,24326,-15865
10247,24582,-14841
10503,25350,-13817
10247,26118,-14073
10247,27142,-13817
10759,28422,-13817
11015,28422,-13817
11271,29702,-14073
11015,30214,-14073
11015,30470,-13817
11527,29958,-12793
11783,28934,-12537
11271,28678,-12025
11527,29702,-12025
11527,29958,-11257
11783,29958,-11257
12039,28934,-11257
11783,27910,-11257
11271,28166,-11001
10759,27910,-10489
10247,27142,-10745
9991,27142,-11001
10247,26886,-11001
9991,27142,-10489
9735,26630,-10489
9991,26374,-9977
10247,26374,-9721
9991,26630,-9721
9991,26374,-9721
10503,26886,-9465
10503,26630,-9209
10759,27142,-9209
10759,26886,-9465
9991,25094,-9209
8967,23814,-9209
8967,24326,-9465
9479,25094,-11513
9991,25350,-13817
10503,25350,-15353
10503,25350,-16121
10759,25606,-16377
10759,25350,-17657
10503,25350,-18425
10503,25094,-18169
10503,24582,-17401
10247,24326,-16889
10503,24838,-16633
10503,25350,-15865
9991,26374,-15097
9735,26630,-15097
9735,27142,-15353
9735,26886,-15353
10247,27398,-15097
10759,27142,-14585
11015,26630,-14073
11015,27398,-13817
11015,28422,-14073
15111,-20730,-20985
18951,518,32264
25095,-28666,13832
32263,19206,-9719
-26106,8198,28426
-16890,-762,1802
-6906,-28666,-19957
-251,-21754,32267
1797,21255,29451
-2299,26886,-23798
-12027,22278,-1015
-26107,30982,26888
26118,-3834,-12793
16390,-19962,7943
11271,-25082,23303
8199,-30202,-29945
7175,29446,-22521
7175,23814,-18937
7687,18182,-16633
7687,14598,-13049
7687,14342,-9721
7687,14854,-8697
7431,14598,-7929
7431,13062,-6393
7431,13062,-5113
7175,13062,-4601
6663,12550,-4857
6151,11526,-3321
6151,11526,-2297
6151,11270,-3065
6151,11014,-4345
6151,11014,-5369
6151,10758,-5369
7175,10758,-5881
7431,11014,-7161
7175,10502,-8185
7175,10246,-7929
7175,10502,-7673
6919,10502,-7929
6663,9990,-7929
6407,9734,-7417
6407,10246,-6905
6407,10502,-6905
6663,11014,-6649
6663,11270,-6393
6919,10758,-6393
6919,9990,-5369
6919,9478,-4857
7431,9478,-4857
7687,9222,-4601
7687,9478,-4345
7431,9990,-4089
7687,9734,-3833
7687,9734,-3065
8199,9478,-2553
8199,10758,-2297
8455,11270,-2041
8199,10758,-1785
8455,10502,-1785
8967,9734,-2041
8967,9734,-2041
8711,10502,-1785
8711,10758,-1785
9479,11782,-2041
9735,13062,-2041
9735,14342,-2553
9735,16134,-3577
10247,18438,-4601
11015,20230,-5113
10759,22278,-5113
11015,23302,-6649
11527,24582,-7673
11783,25094,-7929
11783,25350,-7929
11527,26118,-8185
11783,26630,-9209
11783,26374,-8953
11527,26374,-8185
11783,26374,-7673
11783,26630,-7417
11783,27142,-8441
11783,28422,-9209
12039,29190,-9209
12551,29190,-8953
12551,28678,-9209
12295,28678,-10233
12039,28934,-10489
11271,28678,-9721
10759,28678,-9209
10503,28934,-9209
10503,28934,-9465
10759,28422,-10489
10759,27142,-10233
10503,27142,-10489
10247,27142,-10745
9991,27398,-11257
9991,26374,-11001
9735,25350,-9465
9479,24582,-8953
8967,24582,-8697
8967,24070,-9209
8711,24070,-9465
8711,22790,-9465
8711,22278,-8953
8967,21510,-8441
8711,21510,-8185
8199,20742,-8185
8455,20998,-8185
8455,20742,-8185
8455,20230,-7929
8455,20230,-8185
8199,20998,-8185
8455,21510,-8185
8455,21766,-7929
8455,23558,-8185
8455,23558,-8953
8711,23558,-8953
9479,24326,-9209
9223,24326,-9209
9223,23558,-8697
8967,23558,-8441
9223,23558,-8697
8967,24326,-8697
8967,23558,-8953
9223,23558,-8953
9479,23302,-8953
8967,23046,-8697
8967,24326,-8953
8711,25606,-9209
8711,25350,-8697
8967,25350,-7673
8967,25606,-7161
8711,25350,-6905
8711,25350,-6905
9223,25606,-6137
9991,25862,-5369
9991,25606,-4601
9735,24838,-4089
9479,23814,-3321
8455,22278,-3065
8455,22534,-3065
8711,22534,-3577
8967,22534,-5881
8711,23814,-7929
8967,23814,-9977
9223,24070,-10745
9223,23046,-11513
8967,23302,-11769
9735,23814,-12025
10247,24070,-12025
10247,24326,-12025
10503,24070,-11769
10503,24070,-11769
10503,24326,-11769
10247,24838,-11001
9991,25350,-11001
10503,25862,-11769
11783,31238,-13817
15111,-22522,-19705
19207,262,32520
23559,-29690,13576
29703,15366,-9719
-27642,1030,29962
-19194,-13818,5642
-11514,15622,-14325
-7163,19974,-26869
-6907,-9210,-26358
-11259,-250,-13559
-22011,2566,9737
30470,16646,-30200
19206,-14842,-6137
12038,-27130,14087
7943,-31994,28679
5383,28934,-26361
5127,27654,-23801
5639,20230,-16377
6407,16134,-13817
6407,14086,-10745
6407,14342,-8697
6407,14342,-7161
6151,14086,-4857
6151,12806,-3577
6151,11526,-3577
5895,11270,-3577
5895,11270,-3321
5895,10502,-2809
6151,9478,-1785
5895,9222,-1529
5639,9222,-1273
5383,7942,519
4872,6662,2567
4616,6662,2311
4616,6662,2311
4616,6918,2823
5128,7430,2311
5896,8198,-761
6919,8710,-3833
7175,10246,-5625
7175,10502,-5369
7687,10502,-5369
8199,10246,-5625
7943,10758,-5625
7943,11014,-4857
7943,11526,-4345
7687,11270,-4089
7431,9990,-4345
7687,8454,-3065
7687,8454,-1785
7687,8198,-1529
7431,8454,-1785
7175,8454,-1273
6919,7686,7
6920,7430,519
6920,7430,519
7176,8198,263
7432,8198,263
7432,8454,519
7688,8454,519
7688,8454,1031
7688,8198,1031
7944,8710,1287
7688,9734,1287
7688,11526,775
7688,13318,519
7944,14086,519
9992,17670,-505
10503,19462,-2297
10247,20998,-3065
9991,22534,-3833
9991,23558,-4857
9991,24326,-5625
10247,25350,-5625
10247,25606,-5881
10503,25350,-6137
10503,25350,-6393
10503,25606,-6905
10759,25606,-6649
10759,25350,-6137
10247,25094,-5625
9735,24838,-4857
9223,24838,-4857
9223,24582,-4857
8967,24582,-4601
9223,25350,-4601
9223,25350,-4345
8967,25094,-3833
8967,25350,-3577
8967,25350,-3577
9223,25606,-4345
9223,25606,-4857
9479,25606,-7929
9479,25094,-8953
8967,23302,-9465
8711,23046,-9465
8711,22534,-9721
8711,22022,-9721
8455,20998,-9465
8199,20486,-9465
8455,20486,-9721
8711,20998,-9721
8199,20486,-9721
7943,20742,-9209
8455,20742,-8697
8967,20230,-8441
8967,19974,-8697
8199,19974,-9209
7431,19718,-8953
7175,19718,-8953
8455,20742,-9209
8967,20742,-9209
8711,20486,-8953
8199,20230,-8953
8455,20230,-8697
8455,20742,-8441
8455,21510,-8441
8455,21766,-8953
8455,21766,-9465
8199,22022,-9465
8199,22278,-9209
8455,21254,-8953
8455,20998,-8697
8455,20998,-8697
8455,22534,-8953
8455,22790,-8953
8199,22790,-8697
8199,22278,-8697
8199,21510,-8953
8199,20998,-8953
7943,20742,-8697
7431,20742,-7673
6919,20998,-7929
7175,20742,-7929
7175,21254,-7673
7431,21510,-6649
7431,21254,-5881
7175,21254,-5881
7175,21766,-5881
7175,22022,-6137
7175,22022,-7161
6919,21766,-7673
7175,21766,-8697
7431,22022,-9209
7175,22534,-10233
7687,22790,-10233
8199,22278,-10233
8711,22278,-10233
8711,22534,-10489
8711,23558,-11001
8967,23302,-10745
8967,23302,-10745
8711,23558,-11001
8711,23558,-11001
8967,22790,-11001
8967,22790,-11257
8967,22534,-11001
8967,22534,-10489
9223,22278,-10233
9479,23558,-10745
9223,24070,-11001
9223,23814,-11001
9479,23814,-10745
9479,23814,-10745
9223,24070,-11001
9223,23558,-10489
9223,23302,-10233
9479,23302,-10489
9735,22790,-10233
9223,22534,-9977
8455,22022,-9465
8455,21766,-9209
8455,22022,-9721
8455,22022,-9977
8199,22278,-9721
7943,22278,-8953
7943,22534,-8953
8199,22022,-8697
7431,22022,-8953
7175,21510,-8441
7431,22278,-7673
7431,22534,-7673
7431,22022,-7673
7431,20486,-8185
7175,19718,-8185
7175,19462,-8185
6663,19462,-8697
6407,19718,-9977
6663,19462,-11769
6919,19974,-12537
7175,19974,-12793
7431,19974,-12537
7943,20230,-13561
7943,20742,-14585
7687,21510,-14329
7943,21510,-14073
7943,21254,-13305
8455,22022,-13305
8967,22534,-13049
8967,22278,-12793
9223,22022,-12281
9223,22022,-12281
8711,22278,-12281
8967,23302,-11257
8967,22790,-10233
8967,20742,-10233
9223,19718,-10233
9223,22022,-10233
11015,28934,-12537
13831,-24314,-20473
17159,-2042,30471
22023,-29690,11784
27655,15878,-10743
-30458,2310,29962
-20986,-13818,5898
-13050,12038,-12533
-11003,16902,-16629
-8187,-18170,-19446
-12795,-11770,-7159
-23035,-8698,16392
29958,11014,-22008
18438,-17658,1799
11783,-28410,20487
8199,32518,-31481
5639,26630,-22265
4615,20998,-16633
4359,16390,-14329
5127,12294,-12281
4871,11270,-8953
4871,11270,-6649
4871,10502,-6905
5639,8454,-8185
6151,8198,-8185
5895,8966,-8185
5895,8966,-8441
6151,8966,-8953
6919,8710,-9465
6919,8198,-9465
6919,8198,-9465
6663,8198,-8953
6663,8198,-8185
6919,8198,-8185
6663,6662,-7929
5895,5638,-7417
5895,5382,-6393
6151,5126,-6137
6151,5126,-5369
6407,5126,-4601
6407,5126,-4601
6407,5126,-4601
6151,4102,-4345
5895,3334,-3577
5895,3334,-2553
5639,3590,-2041
5895,3334,-1529
5639,3846,-505
5639,4102,7
5896,4102,519
5640,3846,775
5384,3846,1799
5640,4102,2055
5640,3846,2055
5384,3846,2567
5384,4614,3079
6408,5638,3591
6664,6662,3591
6664,6918,3847
6664,7430,3847
7176,7942,3847
7688,8198,4103
7432,8710,3847
6664,8454,3847
6408,8710,4103
6152,9990,2823
7176,11014,1287
7432,13062,-1273
7431,14342,-3577
7687,15110,-5113
7943,17670,-6905
8967,20230,-8697
9223,21254,-10233
8967,22278,-10745
9735,23558,-12281
9991,23814,-13561
10247,24582,-14073
10503,24582,-14073
10247,24582,-14073
10247,23814,-14585
10759,23558,-14841
11015,23046,-14073
10503,23046,-14073
10503,23046,-13817
10247,22790,-14073
10247,22022,-14073
10247,21510,-13817
9735,21254,-13305
9223,21254,-12537
8967,20998,-12281
9223,22022,-11257
9991,23046,-10489
9991,23558,-10489
9479,23814,-9977
8967,22790,-9721
8711,22790,-8697
8199,23046,-7929
7943,23046,-8185
8199,23046,-8185
9223,23814,-7161
8967,24070,-6905
8967,23302,-6905
8711,22790,-6137
8199,21510,-5881
7687,20998,-5625
7687,20998,-4857
7943,20230,-4601
7687,18694,-4089
7687,18694,-3833
7431,18182,-4089
7175,16646,-5113
6663,15878,-6393
6663,15878,-7673
6407,15622,-7417
6663,15366,-7417
6663,15366,-8441
6663,15622,-9465
6663,15622,-9465
7431,16902,-9209
7943,16902,-9209
7943,16646,-9977
7431,16390,-9977
7687,17414,-9721
7943,17670,-9721
7943,17158,-9721
7687,16390,-10489
8199,16902,-10489
8711,17414,-10233
9479,18438,-10233
9479,18182,-10233
9223,17926,-10489
8967,17926,-10489
9223,17926,-10489
9479,17670,-10745
9223,17158,-10745
9223,17670,-10233
9223,17414,-10233
9223,17926,-10489
8967,19718,-9977
8967,20230,-9209
9223,20230,-9209
9223,20742,-9209
8967,21510,-9209
8967,22022,-8953
8967,22022,-8441
8967,21766,-8697
9223,21510,-8697
9223,21510,-8441
8967,20998,-8441
8711,20230,-8697
8455,19462,-8185
8455,19206,-8697
8455,18694,-9209
8455,17926,-10745
8199,17926,-11513
8199,17926,-11513
8455,17158,-11769
8455,17414,-12281
8455,16902,-12025
8455,17158,-12281
8455,16902,-13049
8711,16902,-13049
8455,16902,-12793
8455,16902,-12793
8711,17414,-12537
9991,17670,-12281
10247,17926,-12025
10247,17926,-12025
9991,17926,-12281
9991,18438,-12281
11271,19206,-12025
11015,19974,-11513
10759,19974,-11257
10759,19974,-11257
10759,20230,-11257
10759,19974,-11513
11015,19206,-10489
10759,18182,-10233
11015,19206,-10489
12551,25606,-12793
15623,-25594,-20217
20231,-250,30983
26375,-25594,10760
27911,-11770,3592
-24825,12806,24842
-15610,-2298,1034
-7418,21254,-16885
-3323,18182,-25845
-3579,-18426,-23030
-10491,-16122,-6391
-21755,-13562,18952
30982,5638,-20728
19718,-23034,2567
11783,-31994,21255
7431,29190,-31481
5639,24070,-23033
5639,18950,-18937
5639,13830,-17657
6151,9734,-14841
6663,7942,-12025
6663,7942,-10745
6919,7942,-10233
6919,6662,-9209
6407,6918,-8441
6663,6406,-7929
6663,5638,-7673
6663,5638,-7929
6663,5382,-7417
6407,5382,-7161
6151,6150,-7161
6919,6150,-7161
7687,5894,-7161
7687,5382,-6649
7687,5638,-5881
7175,5382,-6137
6919,5382,-5881
7943,5382,-5881
8455,5638,-6137
8455,5638,-6649
8455,5382,-6393
8455,4614,-6393
8455,3078,-5625
7943,2310,-4345
7943,1798,-4089
7687,1798,-4601
7687,1798,-4857
7943,1542,-4345
7943,1542,-3577
7431,1286,-3065
7431,774,-2553
7431,262,-1529
7431,6,-761
7175,6,7
7176,-250,262
7176,518,775
7176,1286,1543
7176,774,2055
7176,1030,2311
6408,6,1287
6152,-250,262
6152,1286,-1017
6407,2310,-1017
6919,2566,-1785
6919,2566,-2553
6919,4358,-2553
7431,6662,-2809
7943,8454,-2809
8199,11014,-3833
8711,13574,-5369
9479,16646,-6649
10247,18182,-6905
10503,19206,-7161
10503,19974,-8441
10759,21254,-9209
11271,21766,-9209
11527,21766,-9209
11271,22022,-9209
11015,22278,-9721
10759,22278,-10489
10503,22534,-10745
10759,22278,-10489
11271,23814,-10489
11783,23814,-10745
12295,23046,-10745
11783,22022,-10489
11271,20742,-10489
11271,20230,-10745
11271,20486,-10745
11271,19462,-10489
10503,18182,-10489
10247,17926,-10489
9991,17926,-10489
9735,17158,-9721
9735,16390,-9977
9479,15366,-9977
9479,15366,-9977
9223,15622,-9721
9479,15622,-9209
9479,15366,-9209
8711,14342,-8697
8199,14086,-8441
8455,14086,-9209
8455,14342,-10233
8455,14342,-10745
8455,14854,-11001
7943,14598,-11257
7175,14598,-11257
7175,14854,-11001
7175,15366,-11257
7175,15366,-11257
7431,15622,-10489
7687,16646,-10233
7687,17670,-9977
7943,17926,-10233
7943,17670,-10233
7943,17926,-10233
8455,17670,-9465
9479,17670,-9209
9223,19206,-9209
9223,20486,-8953
8967,20486,-9465
9223,20230,-9977
9223,19974,-10233
9479,19974,-9721
9735,18182,-9465
9479,18182,-9465
8967,18182,-9721
9223,18438,-10233
9479,18438,-9977
9735,18182,-10233
9735,18182,-10745
9991,19462,-11257
9991,19206,-11001
9735,17926,-11257
9735,17926,-11001
9991,18182,-11001
10247,18438,-11001
10247,18694,-11257
9735,18694,-12281
9991,18438,-12281
10247,18950,-12025
10247,18694,-12025
9991,17158,-12281
9479,16134,-12537
8967,16390,-13049
8967,16390,-12793
8967,16390,-13305
9223,16646,-13817
9223,17414,-14329
9223,17926,-14329
9991,18182,-14329
10247,18182,-14329
10247,19206,-14585
9991,19462,-14841
9991,19718,-14585
9991,19462,-13305
10247,19974,-12537
9991,19718,-12537
9991,19974,-12025
10247,20486,-12025
9991,20486,-12281
9735,19462,-12281
9735,19206,-11769
9991,18438,-11257
9735,18694,-10489
8967,18694,-10233
8455,17926,-10233
8711,18438,-9977
8967,19206,-9721
8967,18694,-9721
8455,18438,-9977
7943,17926,-10233
8199,18182,-10233
8711,19206,-10233
8711,18950,-10489
8967,18438,-10489
9223,16646,-10489
9223,16390,-10745
8967,16902,-10745
9223,17158,-11001
9479,16390,-11513
9479,16134,-11257
9735,15878,-11513
9223,16902,-11513
9479,18438,-11257
9991,19206,-11001
10247,19462,-11257
9991,19974,-11257
9991,20230,-10489
9991,19974,-10233
9991,20230,-10489
9735,20486,-9977
9991,20230,-9721
9735,20742,-9209
9735,21510,-9209
9735,21254,-9209
9991,20230,-9465
9991,19206,-9465
9991,18182,-11001
9223,18694,-14073
10503,23046,-16889
13831,-32506,-22777
18183,-11514,29447
18951,-3066,23559
28167,4870,-14071
-29178,-7674,25353
-18938,-16890,522
-9722,18950,-20981
-3835,25350,31755
-2299,-1786,32266
-5115,7942,-20726
-15355,6406,2569
-28666,17414,29192
24326,-15866,-10489
15366,-31738,11015
10759,28678,26887
7431,22790,-28921
5895,15878,-23033
6407,11270,-18937
7175,8198,-15865
7175,7174,-13817
6151,6150,-11257
6407,5894,-8953
6663,5382,-8441
6663,4102,-8185
6663,3334,-7929
7175,3846,-7929
7943,4102,-7929
8199,4102,-7929
7943,4102,-7929
7943,2822,-7417
7943,2822,-6649
6919,3846,-6137
6919,5638,-5625
6919,5382,-4601
7175,4870,-4601
7175,4870,-4089
7175,4614,-3577
6663,4614,-3321
6407,4870,-2297
6663,4358,-2041
6407,4102,-1529
6919,4870,-1785
7431,4870,-2297
7175,3846,-3321
6919,3334,-3833
6919,1030,-4345
5895,262,-4089
5639,262,-4089
5383,6,-4345
5383,262,-4345
6407,262,-3577
6919,-250,-3578
6919,-506,-3834
6919,6,-4345
7175,518,-4345
7175,774,-3833
7175,518,-2809
6919,518,-2553
7175,518,-2297
7687,1542,-2297
7687,3334,-2809
7943,3846,-3321
8967,4102,-3321
8967,6150,-3321
9735,7942,-3577
9991,8710,-4089
10759,9990,-4601
10759,11526,-5369
10759,14342,-5625
11015,15878,-6649
11527,16134,-7417
12039,18694,-7417
12295,20998,-8441
12551,22022,-9721
12807,22022,-10233
12807,22278,-10233
12551,23558,-10745
12807,24070,-11001
13063,24070,-11001
12039,23814,-11001
11783,24326,-10233
11783,24070,-9209
11783,24070,-8441
11271,23814,-8185
11015,24326,-8185
11015,24070,-8697
11527,24070,-8953
11783,24838,-8697
11527,25094,-8697
11527,25094,-8953
11271,24326,-8953
11015,23302,-10233
11271,22534,-12025
11015,22022,-13049
10503,22278,-13561
10759,21766,-14329
10759,22022,-15865
10503,21254,-15865
10503,21254,-14585
10759,20742,-14073
10759,19974,-13817
10759,20230,-13305
10503,20230,-13049
10247,19462,-12281
9735,18694,-11769
9479,17158,-11257
9479,16646,-10745
9223,16902,-10233
9223,15366,-10489
9223,13830,-10233
8711,12806,-9977
8711,12550,-10489
8199,12550,-10489
7943,12550,-9465
7943,12294,-8441
7943,13062,-8697
7431,13062,-8953
7687,13062,-8953
7943,12806,-8953
7943,12806,-8953
8199,13830,-8441
8199,14854,-8441
7943,15110,-8441
8711,15110,-8441
9223,16390,-8441
9479,17414,-8441
9223,17926,-8441
9223,17670,-8697
8967,17926,-8441
8967,18694,-8697
8967,19718,-7929
8711,19462,-6905
8711,19718,-7161
9223,20230,-7161
9479,21510,-6905
9223,20742,-6905
9223,20230,-7161
9479,19718,-7161
9479,19718,-7417
9223,19974,-8697
9735,19974,-10489
9991,20230,-12281
9735,20230,-13049
9735,19974,-14073
9735,21254,-14329
10247,21766,-14329
11015,21510,-13817
11527,20998,-13305
11527,20230,-13305
11015,19974,-13817
10503,19718,-13817
10759,19974,-13561
10759,19462,-13561
10247,18694,-13817
9991,18950,-14073
10247,19462,-14073
9991,19462,-14329
9991,19206,-13817
9991,19206,-13305
9735,19462,-13305
10759,19462,-13817
10759,18950,-14329
10503,18182,-14329
10503,17926,-14073
10759,17926,-14073
10759,17926,-14329
10503,17670,-14073
10503,17414,-12537
10247,17926,-12025
10247,18950,-12281
9991,18950,-12025
10247,19974,-11001
12039,23814,-11769
14855,-30202,-17145
18183,-9466,-29177
23047,24582,18696
29959,6662,-4087
32518,22790,-12279
-17146,-12794,6410
-7418,27654,-15861
-1019,-28922,-30197
1541,14087,-32757
-1275,24326,-22518
-11515,21254,521
-25082,28422,29192
27654,-8442,-10745
17414,-26362,9223
10759,-32250,23815
7431,27654,-30969
6151,21254,-24569
6407,15878,-22521
6663,11014,-20217
6407,8454,-16377
6407,8198,-12537
6919,8454,-12281
7175,8454,-12025
7431,7942,-9977
7175,6150,-8185
6919,5638,-8441
7175,5382,-8697
6663,4870,-8953
6151,4870,-8185
6407,5126,-7673
7175,5126,-7929
6919,4870,-7929
6919,4614,-7673
6919,4358,-6905
6663,3846,-6649
6407,4102,-6905
7175,4102,-6905
7687,3590,-6649
7687,3334,-6905
7431,3334,-6137
7175,3590,-5369
6663,3590,-4345
6663,3334,-4345
6663,3334,-4345
6663,3846,-4089
6663,4102,-3065
6663,4614,-2041
6663,4614,-1785
6919,4358,-1529
7175,4870,-761
7687,5638,263
7688,5126,775
7944,4870,1031
7688,4102,1543
7688,3590,2055
7944,3334,3591
7688,3590,3847
8200,4614,2311
8456,4870,1287
8200,5382,1031
7944,5126,263
8456,5126,-2041
9479,5894,-4089
9479,6150,-4857
9479,7174,-4857
9991,8710,-5881
11015,10246,-7161
11271,11782,-7929
10759,13574,-7929
10759,15878,-8697
10759,17414,-10489
11527,19462,-10745
11783,20230,-10489
11783,21254,-11257
11783,21510,-12281
11783,22022,-12537
12295,22022,-12537
12295,22534,-12537
11527,23046,-12793
11015,23302,-12793
10759,23046,-13561
10759,22790,-13817
10503,22790,-13305
10503,22534,-12793
10759,23558,-13049
10759,23302,-13049
11015,23046,-12537
11015,23046,-11513
10503,22790,-11513
9991,22534,-11001
9991,22790,-11001
9223,22278,-9465
9223,21510,-8185
8967,20486,-7929
8967,20486,-7673
9223,20742,-6393
9223,20486,-5625
8967,19206,-5625
8455,18950,-5625
8711,19718,-5369
8455,20230,-5369
8199,19974,-5369
8199,19462,-5369
8455,19206,-6393
8711,18950,-7417
8455,19462,-9209
8199,19462,-9465
8455,19462,-10745
8199,17414,-11769
8455,17158,-11769
8711,17414,-11769
8967,17414,-12025
9223,17926,-11769
9223,17926,-11769
8455,17926,-12281
8199,17926,-12537
8711,18182,-12793
8967,18694,-12281
8967,18950,-12025
9223,19718,-12025
9223,19718,-12281
9223,19718,-12281
9223,19718,-12281
9223,19462,-12537
9223,19206,-12281
8967,19718,-11513
8711,20230,-11513
8711,19974,-11257
8967,19974,-11513
8967,20230,-11513
7943,18950,-11257
7175,18694,-11001
7175,18694,-10745
7687,18950,-10233
7943,19974,-9721
7943,19974,-9721
7687,19974,-9977
7687,20486,-9977
7943,20230,-9721
7687,20486,-9209
7687,20486,-9209
7431,20486,-8953
7175,20486,-8953
7431,20742,-10233
7687,20486,-10233
7687,20486,-9465
7943,20486,-9209
7943,20230,-9209
8455,20230,-9209
8711,20486,-8953
8711,20998,-8185
8455,20998,-7417
8711,20742,-6905
8199,20998,-6649
7943,20998,-6649
8455,21510,-7417
8967,22022,-8697
9479,22790,-9977
9479,22790,-11257
9479,23046,-12281
9735,23302,-13305
9479,22790,-14329
9735,22022,-14585
9479,21254,-14585
8967,20230,-13817
8711,20998,-13817
8967,20998,-13817
9223,20742,-13817
10247,22022,-13817
11783,28422,-15353
14599,-24314,-22009
19463,-250,29191
24839,-27642,9736
32007,23302,-15095
-24570,15110,22794
-14074,5382,-3573
-4603,-28410,-25333
1029,-25593,28683
2309,7431,29451
2309,-7929,31498
-13563,5894,3593
-28922,16390,32008
23046,-15610,-7417
13062,-29178,13063
8199,31494,28167
5383,27142,-26617
4103,21766,-20729
4615,17414,-17145
5383,12806,-14585
5383,10758,-10489
5127,11014,-7673
5639,12038,-7161
6663,11782,-6905
6407,9478,-7161
6663,8966,-7417
6663,9222,-7161
7431,9478,-7161
7687,9734,-6137
7687,9734,-5625
6919,8966,-5625
5895,8966,-4857
5895,8454,-4601
5127,7430,-3833
5127,7174,-3577
4871,7686,-3321
5639,6918,-1785
5895,6150,-249
5639,4870,-249
5383,4870,-249
5383,4614,-761
5127,4358,-2553
5127,3334,-3833
4871,2822,-4601
4615,2566,-4601
4871,2310,-4601
4615,1798,-4601
4871,518,-4345
4871,-506,-4346
4871,-762,-4090
4871,-762,-4090
4871,-1018,-4090
5383,-506,-3322
6407,-250,-2042
6151,-250,-1786
6151,-506,-1530
5895,-506,-1274
5639,-250,-506
6151,518,-505
7175,1030,-505
7175,1286,-761
7175,1542,-1017
7431,2566,-505
7687,3846,-761
7687,6150,-761
7687,7430,-1273
8199,8966,-1529
9223,11526,-2041
9223,13574,-2809
8967,15366,-4089
9735,17414,-5369
10247,19206,-6393
10503,20998,-6905
10503,22534,-7673
10503,24070,-7673
10247,25606,-7673
10503,26630,-7673
10759,26374,-8697
11015,25862,-8953
9735,25350,-9209
8967,24838,-8953
8967,25094,-8953
9479,24582,-8441
9479,24326,-8441
9735,24582,-7929
9479,24582,-7929
9223,23558,-8441
9223,23558,-9721
8711,22278,-11001
8455,21766,-12281
8455,22022,-13305
8455,22022,-13305
8967,22022,-13561
9479,22022,-13817
9479,22022,-14073
9223,22022,-13305
8711,20230,-13049
8455,19718,-12281
8455,20230,-12281
8199,20230,-12537
8199,19974,-12537
8455,19974,-11769
8967,19974,-11001
8967,18950,-10745
8711,17926,-10233
8199,17414,-9209
7687,17158,-8953
7431,16902,-9209
7431,16902,-8697
7687,17158,-7929
7687,17670,-7929
7431,18182,-8185
7687,17926,-8185
7687,17414,-7929
7431,17670,-7929
7431,17670,-7929
7431,17926,-7673
8199,18950,-7417
7943,19206,-8441
7943,19462,-8441
7687,19974,-7929
7431,19974,-7161
7431,20486,-6905
7175,20998,-7161
7431,20742,-7161
7687,20998,-6649
7687,22022,-5881
7687,22022,-5881
7687,21510,-6137
7431,21510,-6137
7431,21254,-5881
8199,21254,-7673
8711,21254,-8953
8711,21510,-9465
8199,20998,-9977
8199,20742,-11001
8455,20230,-12793
8455,20742,-12793
8455,20486,-12793
8455,21510,-13561
8711,21766,-14073
9223,21510,-14329
9735,21510,-13049
9735,21510,-12537
9735,21254,-12281
9479,20742,-12281
9223,19974,-12537
9223,19974,-12025
9479,20486,-11513
8455,20742,-11769
8199,20742,-11513
8711,20486,-11513
9223,20742,-11513
8967,20230,-11257
9223,19718,-11001
8711,19206,-11001
8455,18438,-11513
8711,17926,-11769
8967,17670,-12281
8711,17926,-12025
7687,17926,-12025
7687,18182,-12281
8455,18950,-12025
8711,18950,-11001
8455,18438,-11001
7943,17670,-11001
8199,17926,-11257
8455,19462,-10233
8711,19974,-9721
8455,19974,-9721
8455,19718,-9721
8455,18694,-9209
8455,18950,-7673
7943,19206,-7417
8199,19206,-7673
8199,20486,-7673
9223,22278,-8185
10247,22534,-8697
10247,22022,-9977
10247,21766,-11001
9991,21510,-11257
9735,21510,-11513
9735,21510,-12281
9479,21254,-13561
9479,21510,-14329
9735,21510,-14585
9479,20998,-14329
9223,20998,-14329
9223,21254,-14073
9479,21254,-13817
9479,20998,-13049
9223,20998,-12537
9223,20230,-12537
9223,20230,-12537
8967,20486,-11769
9223,20486,-11513
9223,20742,-11513
8967,20742,-11769
8711,20486,-11769
8967,19718,-12025
8967,19462,-11769
9223,19462,-12025
9735,19718,-12281
10247,20230,-12281
11783,26118,-14585
14855,-26362,-20729
18951,-1530,31495
25095,-26362,11528
32519,24838,-13559
-23802,18182,23818
-20730,-28154,14858
-3834,-27386,-23797
1797,-26617,30219
2053,2567,32011
-3579,3590,-17654
-15355,1286,7945
-29690,16390,-28920
22790,-15098,-3065
14086,-27386,17671
9223,-32762,-31993
6919,27398,-21753
5639,21254,-16377
5639,16902,-13817
6151,13574,-11257
6151,12294,-8953
6407,12038,-8441
6151,11014,-8441
5639,9222,-8441
5383,7686,-8697
5127,6918,-8953
5127,6406,-9209
5383,4870,-8953
5127,3590,-8185
4359,3590,-7673
4615,3590,-7161
4615,3334,-6905
4615,3078,-6649
4871,2822,-6393
5639,2566,-5625
5639,2822,-5369
5895,2566,-5369
5639,1542,-5369
5383,262,-5113
5639,6,-4345
5383,518,-4601
5639,1542,-4601
6407,1286,-4089
6663,1286,-4089
6919,1286,-4089
6151,1542,-3577
5895,1030,-2809
5895,262,-2041
6151,774,-1529
5895,1286,-249
6151,1542,7
6664,1798,-249
6919,1286,7
7176,774,1287
6920,1030,2055
6664,1542,2055
6664,1798,2055
7176,1798,3335
6920,2054,3591
6664,2566,3847
6408,3590,4359
6920,4614,4871
7432,4870,4871
7432,5894,4615
7432,7430,3079
7944,9222,1287
8200,10758,-1017
8711,12038,-2553
8711,12806,-4345
8711,14086,-6137
9479,15366,-7161
9735,16646,-8185
9735,18694,-9465
9735,19974,-10489
9735,20998,-11001
10759,21510,-11513
11015,21766,-11769
11015,21766,-12281
10759,20998,-12281
10759,20486,-12025
10759,20486,-12281
11015,20742,-12281
10503,20230,-11769
9991,19718,-11513
9991,20230,-11513
10503,21254,-11513
11015,20998,-11257
11015,21254,-10233
11015,21766,-10233
10759,22790,-10233
11015,23814,-10233
11527,23814,-9465
11527,23814,-8953
11015,23558,-8441
10503,23814,-7929
10247,23814,-7929
10503,23302,-7417
10503,23046,-7161
10247,22790,-6905
9735,23046,-6393
9735,22278,-5113
8967,20742,-3833
8455,20230,-3065
8199,20486,-2297
7943,19718,-2041
7943,18694,-2297
7687,18950,-2553
7175,17926,-3577
7175,16902,-4601
6663,15622,-5625
6407,14598,-6905
5895,14342,-7417
6151,14598,-7417
6151,13574,-7929
6407,13062,-8441
6407,13318,-8185
6663,13574,-8185
6663,13574,-8185
6663,13830,-7929
7175,13830,-7673
7431,14086,-7929
7175,13574,-7929
7175,13318,-7929
8199,13318,-7673
7943,14086,-8185
8199,14854,-8185
7943,14854,-8441
7943,15622,-8441
7943,15878,-7161
8199,16390,-6905
8455,17414,-7417
8455,17670,-7161
8455,17670,-6905
8455,18182,-6905
8199,18438,-6905
8199,18182,-6393
8455,18182,-5113
8711,19206,-4857
8967,19462,-5369
9223,19206,-6137
9223,18950,-6137
9223,18950,-5369
9223,18950,-4601
8455,18694,-4601
8455,18182,-4857
8711,18438,-4857
8711,18438,-5113
8967,18182,-5369
8967,18182,-5625
8967,18438,-5625
7943,18438,-4857
7943,18694,-4601
8455,18182,-5881
8455,18438,-7417
8711,19462,-7929
8711,19206,-8441
8199,18694,-9465
7687,18182,-9721
7943,18182,-9721
7943,17414,-8953
7943,17670,-9209
7943,17158,-9721
8455,17926,-10745
9735,19974,-10745
10247,19974,-11001
9991,19718,-11001
9735,19718,-10745
9991,19206,-10489
10247,18950,-8953
9991,18438,-8697
9735,18694,-8953
9735,21510,-9721
12295,28422,-11513
16903,-22778,-19193
20743,518,32264
24583,-26362,13064
30727,19206,-9975
-26618,3846,31242
-18938,-15098,9226
-13306,9478,-8437
-9979,7174,-17397
-8443,2310,-18677
-14843,-21754,265
-26106,-16634,22536
27142,2822,-18168
17670,-23802,4615
12039,-31994,21511
8711,30982,-31225
6663,26630,-22009
6663,21510,-15865
7943,14598,-12793
7687,10758,-9977
6407,9734,-6393
5639,9990,-3321
6151,9734,-2041
7175,9734,-1529
6919,9222,-505
5639,8710,519
5384,7430,1287
5640,6150,1543
6152,5638,1543
5896,5382,1799
5896,5382,1799
5896,5382,263
5896,4614,-1785
6151,4870,-3065
6151,5382,-3065
6919,5382,-6137
7431,4870,-7417
7175,3590,-6393
7175,2822,-5881
7175,2822,-4345
7175,3846,-4601
7431,4102,-4601
7431,4358,-4601
7687,4102,-4857
7687,3590,-4089
7175,3078,-2809
7175,3334,-2297
6919,2822,-2553
6663,2310,-2553
6407,1798,-1785
6151,2054,-1017
6407,1542,7
6920,774,7
6664,774,519
6664,1030,1287
6920,1030,2055
6920,262,2055
6408,262,2055
6408,518,2823
6664,518,2823
7688,1286,3335
7688,1798,3335
6920,1798,3591
6152,2566,4103
6152,3846,4359
7176,5638,4103
7944,7430,3591
7944,8710,3079
7688,10758,2823
8200,12806,2311
8456,13830,1287
8200,15366,775
8200,17158,519
8456,17926,263
8712,18950,7
8968,19206,-505
8455,19206,-761
7943,19718,-1273
8199,19974,-2297
8199,20230,-4089
8455,20230,-5369
8455,20230,-6905
8199,19462,-8697
8455,19462,-9977
8967,19718,-10233
8967,17158,-9977
8455,15622,-9721
7431,14854,-9721
7431,14854,-9209
7943,15110,-8185
8455,14598,-7929
8455,14854,-7929
8455,14854,-7929
8199,15110,-7417
7943,14854,-6649
7687,14342,-6137
7687,14598,-5625
7431,14086,-5369
7431,13574,-5369
7687,13574,-5113
8199,13830,-4601
7943,13830,-4601
7687,14086,-4089
7687,14854,-4345
7431,15622,-3833
7175,15622,-3577
7431,15366,-3321
7687,15366,-3833
7175,15622,-3833
7175,15622,-3833
7431,15366,-2809
7431,15622,-2553
6663,15622,-2297
6151,15622,-2297
5895,15878,-2041
6407,16134,-2297
6919,16646,-2553
6919,17158,-2809
6407,17414,-2809
6407,17414,-2553
6407,17158,-2553
6151,16646,-2809
6151,16390,-3065
5895,16390,-3321
6151,16646,-5369
6919,16646,-7417
6919,16390,-7673
6663,16646,-7673
6663,16134,-8185
7175,15878,-8185
7687,15878,-8441
7431,15878,-7929
7431,14598,-8185
7687,14086,-8185
7687,14342,-8441
7687,14342,-8441
7431,14086,-8441
7431,13830,-7673
7687,13574,-7673
7431,14342,-7929
7175,15366,-7929
7175,15110,-7929
7431,14342,-7673
7431,14598,-7417
7175,15366,-7417
7175,15366,-6905
7431,15622,-5881
7431,16646,-5881
7431,17414,-5625
7431,18694,-5369
8199,19206,-5625
8711,19206,-5625
8711,19206,-5625
8199,18950,-5113
7943,18694,-4345
7687,18182,-3577
7431,17926,-3577
7431,17926,-3577
7431,18182,-3833
7431,19206,-4089
7687,19206,-3321
7687,18438,-3065
7687,18438,-3065
7175,17926,-2809
6407,17158,-3321
6663,16902,-4089
7175,16902,-5113
7175,16646,-5625
7431,16646,-6649
7175,16134,-7673
6919,14854,-8185
6919,14854,-8185
6919,15366,-8441
7431,15622,-9465
7687,15110,-10233
7687,14854,-9977
7431,15110,-9977
7431,14598,-10233
7943,14598,-9209
8455,14342,-8953
8455,14342,-9209
7687,14598,-9209
7687,13830,-9209
7431,13574,-8953
7175,13830,-8953
8199,15366,-8953
8455,16134,-8953
7943,16134,-8441
7175,16390,-7673
7175,17926,-7417
7431,19206,-7673
7687,19206,-7673
7943,18950,-7929
7943,19974,-7673
7943,20742,-7161
7687,20742,-6649
8455,20486,-6649
8967,20742,-6649
8711,20998,-6137
8455,20998,-5625
8455,20998,-5113
8455,20998,-4857
7943,20742,-4601
7431,19974,-4345
7175,19462,-4345
6919,19718,-3833
6919,19974,-3833
7431,19974,-3577
7431,19718,-3321
7175,19974,-3577
7431,20230,-4857
7431,20230,-5625
6663,18438,-5881
6151,16390,-6905
6151,16134,-8185
6663,16390,-8441
6663,16390,-8953
6919,16134,-9209
6919,16390,-9977
7431,16902,-10489
7431,16902,-10489
7175,16646,-10233
7175,16134,-10233
8199,18694,-10745
11015,27142,-14841
14343,-24826,-24825
17415,6,24584
21767,-30202,4872
27911,12550,-17911
-30458,-4090,24841
-23034,-30202,4874
-16378,-13562,-9974
-12539,-19194,-15862
-13307,9734,-11510
-14843,-5882,-8439
-30203,-31482,28424
25350,-3322,-12793
17414,-23034,8455
11527,-30458,24583
8199,28934,-28665
6663,23046,-20729
6663,18950,-16889
6407,14342,-14585
5895,11526,-11001
5639,11014,-7417
5895,11270,-5625
5895,10502,-4601
5639,8454,-3833
5383,7942,-2041
5383,8198,-1785
5639,7942,-2041
5639,7686,-1017
5383,6918,263
5640,6406,263
5896,6406,7
5896,6406,7
5640,7174,-761
5639,7174,-1529
5895,6918,-2809
5639,6406,-3065
5127,4358,-4089
5127,3334,-4089
4615,3078,-5113
4615,3078,-5113
4359,3590,-5369
4871,3846,-5113
5383,3334,-4601
5383,2310,-4089
5383,2566,-4089
4615,3078,-3577
4871,3078,-2553
5639,3846,-1785
5895,4102,-1017
6151,4102,-249
6151,4358,-249
6407,3334,7
6408,2822,263
6152,2566,775
6152,2566,2055
6408,2566,2567
6408,2822,2567
6408,4614,2567
6920,5894,2823
7176,7174,2823
7688,7686,2567
7688,8454,2567
7432,8966,2567
7432,9734,2823
7688,10758,2823
7688,12038,2567
7944,13062,2567
8712,15110,2823
9224,17158,775
9224,18182,-249
9735,20230,-249
10247,21766,-761
10759,22790,-2297
10759,23558,-4345
10503,24582,-5113
10759,25094,-5113
11015,25094,-6905
11015,25606,-7929
11015,25862,-8185
11015,25862,-8441
11015,25862,-8441
10759,25606,-9465
10503,25606,-10489
10503,25094,-10489
10759,25350,-10489
10247,24838,-11257
9991,24582,-11257
10503,24838,-10745
11527,25862,-9209
11271,25350,-8953
10503,24326,-9209
9991,23814,-8697
9991,24070,-7417
9735,24326,-6393
9991,24326,-6137
9735,24070,-6137
9735,23302,-6137
10247,24326,-5881
10759,24582,-5881
10759,24070,-6137
11015,22022,-6137
10759,20742,-6393
10759,20742,-6393
10247,20230,-5881
8967,18694,-4345
8967,18694,-4345
8967,18950,-4345
8967,19206,-4345
8199,18694,-4345
8199,18438,-3833
8455,18438,-3577
8455,18438,-3577
8199,18438,-3833
8199,18694,-3577
8455,18950,-3321
8455,18438,-3321
8199,17926,-3321
8711,19206,-3577
8455,19206,-3577
8455,18438,-3321
8199,17926,-3577
8199,17670,-5369
7943,17670,-7673
8199,18950,-8441
8967,19974,-8441
8711,20230,-8953
8711,20486,-9977
8967,20742,-9977
8711,21254,-10233
8967,21510,-9977
8711,21766,-10745
8967,21766,-11257
9223,22022,-11001
9223,22022,-11001
8967,21510,-10745
9223,20742,-10745
9479,20998,-10233
9479,21510,-9465
9223,21254,-9209
9223,20998,-8953
9479,20998,-8441
9991,20742,-8441
9735,21254,-8697
9735,21766,-8697
9991,22278,-8697
10759,22022,-8953
10759,21510,-9209
11015,21254,-8953
11015,20998,-8953
11271,20230,-9721
11271,20742,-10489
11015,22022,-10489
11015,23302,-9721
11527,24070,-9721
11783,24326,-9465
11527,24070,-9465
10759,24070,-9209
10759,25350,-8953
10503,25350,-9209
10503,25350,-9977
10759,25350,-9977
10759,25350,-9721
10503,25350,-9209
10759,25350,-9209
10503,25350,-8953
10759,25606,-9209
10503,25606,-9209
11015,25350,-9209
10759,25094,-9209
11015,25094,-8697
11015,25094,-8441
11015,25094,-8697
11527,25862,-8697
11783,25606,-8953
11783,25606,-8953
11783,25862,-8185
11015,25862,-8185
11015,26118,-8441
11783,25862,-8185
11783,25606,-7161
11783,25606,-6649
11015,24838,-6649
10759,24326,-6905
11015,24582,-6905
11527,25094,-6905
11527,25350,-7417
11527,25862,-8441
11527,25862,-10233
11527,25094,-11257
12295,25094,-12793
13831,30470,-15865
16647,-22778,-22777
20231,-250,29959
25863,-27898,10760
32263,16646,-13303
-25594,2310,27658
-17402,-15610,5898
-9722,8710,-10741
-5883,6406,-19957
-5627,-27130,-18422
-11771,-20986,-3063
-23035,-14586,19208
31238,8710,-22008
20998,-17146,-505
14342,-24826,17415
10759,-27642,30983
8711,32518,-26105
8967,27654,-21753
9223,22534,-18681
9223,18694,-14329
9223,17670,-13049
9223,16134,-9465
9223,15366,-8697
9223,14854,-6905
9479,14086,-6137
9223,13830,-6137
8711,13574,-6137
8455,13574,-5881
8711,13830,-5881
8455,13830,-5625
8455,12806,-5369
8711,12038,-5113
8711,12294,-4601
8455,12294,-4857
8455,12294,-4857
8967,12550,-4601
9479,12550,-4601
9735,12806,-4601
8967,13062,-4345
8967,12038,-3833
9479,12294,-4089
9479,12294,-4089
9223,11270,-4089
8967,10502,-4345
8967,10246,-4345
8711,10246,-4601
9479,9734,-3833
9735,9478,-3321
9735,9478,-3065
9735,9990,-3065
10247,11270,-2809
10247,11782,-2553
9991,12550,-2553
9991,12038,-3321
10247,12038,-3321
10247,12038,-2809
9991,12038,-2553
10247,12294,-2553
9991,12550,-2809
10247,13062,-2553
10759,13830,-2297
11271,13830,-2297
11271,13574,-2553
11271,12806,-2041
11015,13574,-1785
11015,14854,-1785
11271,16646,-2041
11015,18182,-2553
11527,19206,-3065
12807,22278,-3577
13063,23814,-4089
13319,25094,-5625
13063,25606,-6905
13319,27910,-7417
13319,29190,-7673
13063,29702,-8953
14087,30214,-9721
14087,30726,-9977
14087,31750,-9977
13831,32006,-10233
14343,32006,-9977
14599,31750,-9721
14087,30982,-9721
13831,30982,-10233
13831,30726,-9977
13831,29958,-9977
13831,28934,-9721
13831,28422,-9721
13575,28422,-9465
13575,27654,-9465
13575,27142,-8697
13063,26886,-7673
12807,26374,-7929
12807,25606,-8185
12807,25350,-7673
12807,25350,-7673
12039,24838,-7929
12039,24838,-8697
12295,24070,-8953
12295,23814,-8953
12551,24326,-8697
12039,24582,-9721
11783,24582,-10489
11783,23558,-11001
12039,23302,-11257
11783,22790,-11257
12039,22790,-11257
12039,23046,-10489
11271,23814,-10489
11271,24326,-10745
11015,24326,-10745
11015,24582,-10489
11271,25350,-10489
11271,25350,-10233
11527,25350,-10489
11527,25862,-10233
12295,26630,-10233
12807,27654,-10489
12807,27910,-10745
12551,28422,-10745
12551,28422,-10489
12551,29190,-10745
12551,29190,-10745
12807,28934,-11001
13063,29446,-11001
13575,29702,-11001
13831,29702,-10745
13319,29446,-10745
13319,29446,-11001
13575,30726,-11513
14855,-30714,-13561
16647,-26362,-16377
18183,-20986,-19705
20231,-13306,-23545
23303,-5370,-28921
25607,2822,28168
26119,9734,18440
26119,17414,8200
25863,25862,-3064
26886,-30714,-15352
28934,-25082,-29688
29958,-22522,22280
30470,-20218,11016
31238,-18426,2312
31750,-19706,-3064
31749,-21242,-4344
29445,30470,-3064
26629,21254,3080
23046,13574,10760
20230,8198,18184
18438,7942,23304
18182,17158,26376
18438,32518,28680
20486,-17914,31240
24582,-3834,-30712
27654,1030,-24823
28422,-3322,-15864
28166,-16890,-5368
28166,29446,6152
28167,9222,17928
25351,-8186,29447
21255,-22266,-25337
18951,-32762,-16377
16647,24582,-8697
14087,20998,-3321
11527,18438,519
11016,14342,2055
11272,10246,3591
11272,9734,4103
10248,10758,4615
9992,10502,4871
9992,9734,5895
10504,9734,6919
11016,9734,7431
11016,9990,8455
11016,9990,8711
10504,8710,8967
10248,8710,10247
10504,8710,11015
11016,8966,11527
11528,9222,12039
11528,9734,12807
11528,9478,13575
12040,8966,13831
12040,8198,14599
12040,7686,16135
12040,7942,16903
12040,8966,17415
12296,9478,18183
12552,9734,19463
12552,9734,19719
12808,10502,19975
13064,11270,19975
13320,11782,19975
13832,13062,19207
13832,13574,18695
13832,14342,18695
13832,15366,18695
13832,16646,18695
13832,18182,18695
14344,20230,18695
14856,21510,17159
14856,22534,14599
15112,24582,13319
15112,25350,12295
15624,26630,11015
15880,27654,8711
15880,29190,7175
15880,30726,6407
15624,31494,4871
16136,32518,2567
16392,32262,263
15624,32518,-761
14855,-32762,-1529
14855,-32762,-3577
15111,32006,-5369
15111,32006,-5881
14855,32006,-6137
14855,31750,-7673
14343,30982,-9209
13575,30726,-8953
13831,30982,-8953
13831,30726,-9209
13831,30214,-9465
14087,29446,-9977
13831,28934,-10489
13831,29190,-10745
14087,29702,-10745
14087,29702,-10489
14087,29702,-10233
13831,29958,-10233
14343,30982,-9721
14855,30726,-9465
14599,30470,-9209
14599,30470,-8441
14855,30726,-7673
14855,30726,-7161
14855,31238,-6905
14855,31238,-6137
14855,30982,-6137
15623,31238,-6137
15623,30726,-5113
14599,30470,-5113
14343,30470,-4857
14343,29446,-4857
14087,29190,-4857
13063,27910,-4857
12807,27398,-5881
13063,27398,-7673
13063,27142,-10233
13063,27142,-11769
12807,26630,-12025
12807,26374,-13049
12295,25606,-13817
12039,25350,-14073
12039,25094,-12537
12295,25350,-12025
12295,25350,-12025
12039,25094,-12793
12039,24582,-13049
12807,24582,-13049
12295,24326,-13305
12039,24582,-12793
12039,24326,-12793
12039,23814,-12281
12039,24070,-12281
12295,24070,-12281
12295,24582,-12281
12039,25350,-13049
12039,25350,-12793
12295,25094,-12793
12039,25862,-12793
12551,26886,-12537
12807,27142,-12537
12807,27142,-12537
12551,26886,-12537
12551,27910,-11769
12551,28166,-11769
12807,28166,-11513
12551,28678,-11513
12295,28678,-11769
12551,28422,-11769
12807,27910,-11257
12551,27398,-10489
12551,27654,-10745
12551,28166,-10745
12551,27910,-10745
13063,27910,-10489
13063,27654,-9977
13063,27654,-9721
13063,27654,-9721
12807,27654,-8697
12807,27142,-7929
13063,26374,-7673
13063,26118,-8185
12551,26118,-8185
12551,25862,-10233
13831,27654,-12025
15111,30470,-14073
15367,-31226,-15609
16135,-27386,-17401
18183,-23034,-17913
20231,-15610,-17913
22791,-7930,-19961
25863,-1274,-25849
30471,6662,27400
-29433,16134,9480
-23801,24582,-11000
-19706,30470,-29432
-16122,-30458,23048
-12794,-27898,16136
-11770,-26874,14600
-12026,-26106,16136
-13050,-27386,18696
-14586,-26618,20232
-15098,-22778,21000
-15354,-19450,19720
-15866,-20474,18440
-16634,-30970,18696
-17402,13574,24584
-17658,6406,27656
-24314,22278,-17657
-29946,-1530,-5114
29958,-16122,7174
24583,-20730,18694
19719,-17658,27398
16647,-11258,-31738
14599,-5114,-25850
13319,6,-19449
11527,2822,-13817
8967,2822,-9465
6919,4102,-5625
5639,6406,-2297
4615,8198,-1017
4103,9734,7
4104,11526,7
4360,12038,519
4360,12550,1287
4104,13062,2055
3080,13318,2311
3080,14086,2055
3336,14854,2055
3336,14854,2055
3592,14598,2055
3336,13830,1543
3080,13574,1031
2056,13830,7
1544,14086,-505
775,13062,-761
519,12294,-505
7,12294,263
-504,13317,775
-248,14853,775
-248,15365,1543
-248,15365,2567
8,15878,3847
-248,16645,4359
-1016,17925,5127
-760,18437,6407
-760,18437,6919
-1016,19717,7431
-1016,20997,8711
-1272,22789,9479
-1272,24069,10503
-760,25861,10759
-248,28165,11527
-248,29445,11783
-248,30981,12551
776,-32506,12807
2056,-29946,13063
2312,-29178,13063
3080,-26874,13319
3592,-25338,12807
4616,-23546,11015
5640,-22266,9479
6152,-21498,9223
6664,-20986,8455
7688,-19706,6151
8712,-18426,4615
8968,-17658,3847
9480,-17402,2311
10504,-16890,519
11528,-16890,-761
12295,-17658,-1785
12295,-19706,-2553
12807,-21498,-3833
13063,-22778,-4857
13063,-23034,-5881
12551,-23802,-6905
12551,-24570,-9209
12551,-25594,-11257
13063,-26106,-12537
13063,-27642,-13561
13319,-28410,-13817
13063,-29434,-14585
12551,-30458,-14841
12551,-32762,-14585
12551,32006,-14073
12295,31238,-14073
12551,30214,-13817
12551,30214,-13561
12551,30470,-12793
11783,29958,-12537
12039,29190,-11769
12295,29446,-11257
12295,29446,-11001
12551,29446,-11257
12039,29702,-11257
11783,29446,-11001
11783,28934,-10489
12039,28422,-10489
11783,28166,-9977
11527,28166,-9721
11527,27910,-9465
11783,26886,-9465
11783,27142,-9465
11527,28166,-9465
11527,28678,-9465
12295,29446,-9721
12551,29446,-10233
12551,29190,-10489
12295,28422,-9977
12551,28422,-9721
12039,28678,-9721
11527,28934,-9465
12295,29446,-9465
12295,29702,-9209
12551,28166,-9209
12551,27398,-9465
12295,27142,-9465
12039,27142,-8953
12039,26374,-8953
12039,25094,-8953
12039,25094,-9721
12039,25862,-11001
12039,26118,-12537
11783,25862,-14073
12039,24582,-15609
11783,24070,-16633
11783,24326,-16889
11783,24326,-17145
11527,24070,-17401
11271,24326,-17401
11015,24838,-17145
11783,24838,-17401
12295,24838,-17145
12039,24582,-16377
11783,24326,-16121
11783,25606,-15865
11527,25606,-15609
11527,25350,-14585
11271,24838,-14073
11271,24070,-14073
11271,24582,-14073
11015,25094,-13817
11015,25606,-13049
11783,25606,-13049
11783,25350,-12793
11783,26374,-12793
11783,26630,-12537
12295,26374,-13049
12551,26886,-13561
12551,27142,-13817
12551,27398,-13049
12807,27910,-12537
12807,27910,-12537
12807,28166,-12537
13319,27398,-12537
13575,26374,-12281
13319,25862,-12025
12551,26118,-12025
11783,25350,-12025
11527,25606,-11769
11783,25862,-11769
12295,25862,-12025
12295,25862,-12025
12039,25606,-11769
12039,25350,-11257
12039,24838,-11513
11527,24070,-11513
11527,23302,-10489
11527,23558,-11513
11783,24070,-12793
11783,24070,-15097
11527,24838,-15865
11527,24838,-16121
11527,24070,-16633
11783,23814,-17145
11783,23046,-17913
11527,23046,-17913
11783,23302,-17657
11783,23302,-17145
12039,23302,-17401
11783,23046,-17401
11783,23046,-16889
11783,23814,-16889
12039,24582,-16633
12039,24838,-16121
12295,24838,-15865
12295,25094,-15865
12807,25862,-16121
12807,26374,-16121
12551,26630,-15609
12551,26630,-15097
12807,26886,-15353
12551,26630,-15353
12295,26374,-15609
12807,27142,-15097
14343,28422,-15097
13575,28166,-15353
13319,27654,-14841
13319,26886,-14841
13319,26630,-14585
13575,27398,-13561
13063,27910,-13305
12551,27398,-14073
12807,27142,-14073
13063,27398,-14073
13575,27398,-13561
13319,26886,-13049
13319,26630,-12793
12807,26118,-12793
12551,25862,-12793
12295,25862,-12281
12295,25606,-12281
12295,25606,-12537
12039,26630,-12537
12551,26886,-12537
12807,25862,-13561
12551,25094,-15865
12039,25350,-17657
12039,25606,-17657
12295,25350,-18425
12039,25606,-19193
12039,25606,-19449
12551,25350,-19705
12807,25094,-19193
12807,25350,-19193
12039,25350,-19193
12039,25094,-18681
12039,25606,-18681
13319,29702,-18937
15623,-26362,-23289
18695,-9722,31751
24327,22022,15112
26631,-30970,9736
-27897,-11258,32265
-19194,-19194,5642
-8954,23302,-16629
-507,-26618,-31989
2309,23047,29195
-251,-28410,-27894
-8699,-31482,-7671
-20731,-23290,19976
31494,1798,-18936
20742,-18170,2311
14087,-25594,19463
11271,-29434,31751
9735,30214,-25849
9223,25094,-22265
9223,20742,-19705
9223,17670,-15865
9223,17414,-12537
8967,16902,-11257
8967,15878,-11001
8711,14854,-9465
9223,14854,-7929
9479,15366,-7929
9735,15622,-8185
9479,14598,-8185
9223,14086,-7161
9223,12806,-6137
8711,11782,-6393
8455,11014,-7929
8455,10246,-8953
8199,9222,-9721
8199,9222,-11513
8199,8966,-12793
7943,8454,-12793
7431,8454,-12537
7431,8198,-12537
7175,7942,-12537
7431,7942,-12793
8199,7686,-12793
8455,7686,-13049
8199,7430,-12793
8199,8454,-11513
8199,8710,-11257
8967,8198,-11257
9223,7430,-10745
8967,7686,-9721
9223,7686,-9721
9735,7430,-9721
9991,7942,-9465
9735,8198,-8697
9735,8198,-8185
10247,7686,-8185
10247,7942,-7929
9991,7942,-6905
10503,9734,-6393
11271,10502,-6649
11527,10758,-6393
11527,10502,-6393
11783,11014,-6137
11783,12038,-5881
11271,13062,-5625
10759,13318,-5625
11527,14342,-5369
12039,15878,-5113
12551,17414,-5369
12295,18950,-6649
12551,21510,-7929
12807,24326,-8441
13319,25862,-8953
13831,27142,-10233
13575,28678,-12281
14343,29702,-13049
14855,30982,-14073
15111,30982,-16633
14343,30982,-18169
13575,31238,-18425
13575,31238,-20217
13575,30726,-20729
13319,29446,-22009
12807,28934,-22009
12039,28678,-21241
11783,28934,-21497
12551,27398,-21497
13063,27142,-21241
13063,27142,-21241
12551,27654,-20729
12295,27398,-20473
12551,27398,-20217
13575,27910,-19705
13831,28422,-19961
13831,28678,-19961
13319,28166,-19705
13063,27142,-19193
13063,26886,-18169
13063,27398,-17913
13319,28422,-17657
13319,28422,-17145
13063,27654,-16633
12807,26630,-16377
12551,26630,-16377
12295,27142,-16377
12295,27142,-15353
12039,26886,-15097
12295,26374,-15097
12551,26374,-15097
12295,26630,-14329
12295,26374,-13561
12807,25862,-12793
12807,26374,-12793
12807,26630,-13049
12551,26374,-12793
12039,26374,-11769
11783,26630,-11513
11783,26118,-12025
12039,26374,-13049
12039,26374,-13817
12295,26630,-14841
12039,26630,-15865
11527,26118,-17401
11271,25094,-18681
11271,25094,-19193
11783,25350,-19961
11783,25350,-19961
11783,24070,-20473
11783,22278,-20729
11271,22278,-20729
11015,22278,-20473
11015,22278,-20729
11015,23046,-20473
11271,23302,-20729
11271,23302,-20217
11783,23302,-19961
11527,23558,-19961
11527,23814,-20217
11527,24070,-20217
12551,24582,-19961
12551,24582,-19961
12295,24838,-19961
12295,24838,-20217
12551,25094,-19705
12295,25606,-19193
12551,25350,-18937
12039,25350,-19193
11783,25094,-19193
12039,25094,-19449
12295,26374,-19449
11783,26886,-19193
11783,27142,-19193
11783,27142,-18681
12039,27654,-18169
11783,27910,-17913
11527,27910,-17657
11527,27654,-17913
11271,27654,-17913
11271,28166,-17913
11527,27910,-17657
11527,27142,-17657
11783,26118,-17657
11783,25862,-18169
11271,25862,-19961
10759,25606,-21753
10759,25350,-22009
10759,24838,-22521
10759,24070,-23289
10759,24582,-24057
11015,24582,-24057
11271,24582,-23801
11271,23814,-23289
11527,23302,-22777
11271,23558,-23033
11015,23814,-23033
11527,23814,-22777
11783,24070,-23033
12039,24070,-23033
12295,24070,-22521
11271,23814,-22265
11015,23302,-22265
11271,23558,-22009
12039,23558,-21497
12295,24070,-21753
12039,24838,-21241
11271,25094,-20985
11271,25094,-20729
11271,24838,-20729
11271,25094,-20985
11271,25350,-20473
11271,25350,-20473
11527,26118,-20473
11271,26118,-20217
11527,26374,-19705
12807,28422,-19449
14855,-29178,-21497
17415,-12026,-31225
21511,17670,18952
29191,-1274,-1784
-28666,-12794,-28407
-19450,-18682,8458
-9466,27142,-16885
-1531,-20474,31243
2309,29191,26379
2309,19463,26123
-8699,-24826,-12791
-20731,-22010,13320
31494,1286,-26104
19974,-19962,-4857
13062,-27898,9735
10247,-32762,21255
8455,25862,30727
8199,21766,-29945
8199,15878,-28153
7943,13574,-25849
7943,12806,-21753
8199,12550,-19705
8455,12294,-19705
8711,11782,-19705
8711,11526,-19449
9223,11526,-18681
9223,11526,-18937
8967,11526,-18937
9223,11782,-18681
9991,11782,-18681
9991,11014,-18425
9991,9478,-17913
8199,8710,-17913
7943,9478,-17401
8967,9990,-16889
9479,10246,-16377
9479,11014,-16121
8711,11014,-15865
8199,11014,-15353
8199,11270,-14585
8455,11014,-14073
7943,10502,-13817
7431,10502,-13049
7175,9990,-12537
7431,10246,-11769
7431,9734,-11513
7431,9222,-11257
7175,8710,-10489
7431,8966,-10489
8199,9222,-10745
8455,10246,-10489
8711,9990,-10233
8711,9478,-10233
8967,9222,-10745
9223,8710,-11257
9223,8966,-11769
8967,8454,-11769
9223,7430,-12537
8967,7430,-13817
8711,7686,-13817
8967,7430,-13305
8967,7686,-13049
9223,7430,-13049
8967,7686,-13561
9223,8966,-14585
9991,11270,-14585
10759,12806,-14585
11271,13830,-14329
11527,15622,-15353
11783,18694,-16377
12551,19974,-17657
12807,20486,-18169
12551,22278,-18937
12807,24326,-20473
13063,26630,-21241
13575,26886,-21241
13319,26374,-20985
13063,26630,-20985
13063,26118,-21241
12551,25094,-20985
12295,25862,-20473
12551,26630,-20473
12551,26630,-20729
12551,26374,-20729
12551,25350,-20473
12039,25094,-19193
12039,26118,-18937
11015,26118,-18681
10759,25350,-18681
10759,24838,-18425
11015,25094,-17913
11015,24070,-17401
11015,23046,-16889
11015,22022,-16121
10503,22534,-15609
10247,23046,-15353
10247,23046,-15353
10247,23046,-15097
10503,22790,-16377
11015,22790,-17657
10247,22534,-18169
9479,20998,-19193
9479,20998,-20217
9735,21254,-21753
9479,20998,-22265
9479,20230,-22009
9479,20230,-22777
9735,20486,-22777
9735,21510,-22777
9991,21254,-22521
9991,20230,-22777
9991,20486,-22777
9735,20486,-22777
9991,20230,-22265
10759,20742,-21497
10503,22022,-21753
11015,23046,-22265
11271,23046,-22521
11271,22790,-22521
11015,23814,-21753
11015,24326,-21241
11015,24070,-21241
11271,23046,-21241
10503,22534,-21241
9735,22790,-20473
9735,23046,-20473
9735,23302,-20473
10247,23302,-20217
10503,23046,-19705
9479,23046,-19705
9223,23302,-19961
9735,23046,-19449
9991,22022,-18937
9991,22278,-18425
9735,22790,-18681
9735,22790,-18169
9991,22534,-17913
9735,22022,-17913
9735,21254,-18169
9735,21766,-18169
9991,21766,-17913
9991,22022,-18425
10247,22022,-18937
10247,22278,-18681
9991,22278,-19193
9991,22022,-19961
9991,22278,-21753
9991,21254,-22777
10247,20486,-23289
10247,20486,-24057
10503,20742,-24569
10503,19974,-24313
10247,19718,-23801
10247,19974,-23545
10503,20486,-23545
10759,21254,-24313
11527,20998,-24313
11271,20998,-23801
11015,20998,-23545
11015,21254,-23033
10759,21254,-22521
11271,21254,-22265
11271,20998,-21497
11015,20998,-20985
11015,20998,-20729
11015,21766,-20985
11271,22790,-21241
11015,22534,-21241
10759,22534,-20985
10759,22790,-20729
10759,22790,-20729
11015,22534,-20217
10247,22022,-19961
9735,22278,-19449
9735,22022,-19449
9735,22022,-18937
9735,22278,-18937
9223,22022,-18425
8967,21510,-18169
9479,22278,-18169
9991,23302,-17913
10503,23814,-18169
10503,23558,-17913
10503,23814,-17401
10759,23814,-17145
11015,23302,-17401
10503,23302,-18169
10247,23558,-19705
10759,23046,-20985
11015,22534,-21497
9991,20998,-22265
9479,19462,-23545
9223,18950,-24313
9479,18950,-24057
11015,20742,-25081
12807,28934,-29433
16903,-17146,25863
22535,16390,9480
28679,-3322,-12536
-28922,-13818,25865
-18682,-19194,-2550
-7675,24838,-25589
517,-25849,24331
3077,18695,20747
1029,30215,29962
-7931,26118,-13815
-22011,31238,13832
29190,-9466,-24825
18182,-27386,-3321
15622,-30970,2567
8199,27654,27143
6407,20742,-29945
6663,16134,-26361
7687,13062,-23801
7431,11014,-20729
7687,10246,-17913
7687,10246,-16633
7687,10246,-15865
7687,10246,-14841
7175,9222,-13817
6919,9222,-13817
7431,10502,-13817
7431,10502,-13305
7687,10246,-13049
7943,9478,-12793
7431,8966,-12537
6407,8966,-12025
6663,8710,-10745
6663,8710,-10489
6407,8454,-10233
6151,7942,-9977
6407,6918,-9977
7175,6662,-10233
6919,6662,-10489
6919,6918,-10233
7175,5382,-11001
7175,3590,-12281
6151,2566,-13305
5639,2566,-13817
5895,2822,-14073
5895,1798,-14585
5639,774,-15865
5895,-506,-15866
5383,-506,-15866
5127,-1018,-15610
6151,-2042,-15610
6919,-2298,-15610
7175,-2042,-15098
6407,-1530,-13818
6151,-1786,-12538
6151,-1786,-12538
6407,-1530,-12282
6407,-1530,-10746
6407,-1530,-9978
6663,6,-10233
7431,518,-10233
7431,1030,-9977
7687,1286,-9977
7687,2054,-9465
7431,2054,-9209
7687,3078,-9209
7943,5382,-9209
8711,6918,-9209
8967,8710,-11001
9479,11526,-12025
9991,13830,-12537
9991,15878,-13049
10759,17158,-14073
11015,18438,-14585
11271,19718,-14329
11015,20486,-14329
10247,21254,-15609
9991,21254,-15865
10247,21510,-16121
9991,21766,-15609
9479,21766,-15609
9479,20998,-16377
9735,20998,-17913
9735,21254,-18681
9479,21254,-18937
9479,20998,-19705
10247,20998,-20985
10247,21254,-21497
10247,21254,-21241
9991,21254,-21241
9223,19974,-21497
8967,19718,-21497
9479,20230,-21241
10247,20230,-21497
10247,19974,-21241
9991,19974,-21497
9479,19974,-21753
9735,19974,-21753
9735,19974,-20985
9735,19718,-20217
9479,19206,-19961
8967,17926,-19705
9223,17414,-18937
9223,17670,-17657
8967,18182,-17401
8711,18438,-17401
8967,18182,-16633
9223,17670,-15865
9223,16134,-15353
8711,15366,-15353
7943,15110,-15609
7687,15622,-14585
7687,15366,-14073
7943,15110,-14073
7943,15110,-14329
7943,15110,-14073
7687,15366,-14073
7687,15622,-13561
8455,15110,-13561
9479,15366,-14073
9479,15622,-14841
8967,16134,-14841
8455,15622,-14585
8455,15366,-14329
8455,15110,-14329
8967,16646,-15097
9479,18182,-15097
9479,18182,-15097
9223,17414,-14585
8455,17414,-13561
8199,17670,-13049
8455,17670,-12793
8455,18694,-13049
8455,19718,-14073
9223,19974,-14841
10247,20230,-15865
10247,20486,-17401
9991,19974,-18937
9479,19718,-19705
9223,19718,-19961
9479,19974,-20985
9223,19974,-21241
8967,19974,-21241
9479,19206,-20985
10247,19206,-21497
10247,19206,-21497
9479,19974,-21497
9735,20230,-21241
9479,18950,-20217
8967,18694,-20217
8967,18438,-20217
8967,18438,-20217
9223,17414,-19961
9223,16646,-20217
9223,16390,-20217
8455,16390,-19449
8199,16390,-19449
7943,16390,-19193
8455,15622,-19193
8711,14598,-19193
7943,13574,-19193
7687,13062,-19193
7431,12294,-18425
7431,11782,-18425
7431,12038,-18169
7431,12294,-18169
7431,12038,-18425
7431,12806,-18425
7687,14342,-18169
8967,16134,-18169
9223,15878,-18169
8967,16390,-18425
9223,17670,-17657
9223,18182,-16889
9223,17926,-16889
9223,18694,-16889
9223,19206,-16121
9479,18950,-14841
9991,20230,-15097
11783,26630,-16633
15367,-24826,-24057
19975,3078,27400
26375,-19962,6920
-31481,32518,-20215
-22010,26118,15626
-11002,15110,-11253
-1019,-22266,-32757
4101,-25593,21003
3589,-2297,22282
2565,-20473,25098
-16635,-5626,8
-30970,8198,27912
22534,-20730,-13817
13574,-31482,5639
8455,29958,20743
6407,24326,30471
5639,17926,-30201
5895,12038,-26873
5639,7942,-22777
5639,5638,-18681
5639,4870,-17401
5639,3590,-16889
5895,3078,-15097
5895,3078,-13817
5639,2822,-14073
5895,2566,-14841
6151,2566,-14585
6151,3078,-13817
6407,3334,-13049
6407,3078,-12793
6151,3078,-12793
5639,3334,-13049
5639,3334,-12281
5639,3590,-11257
5383,3590,-11257
5639,3078,-10745
5895,3334,-9977
5895,3334,-8953
6151,3334,-8953
6407,3590,-8953
6919,2822,-8697
6663,2054,-8441
6663,2310,-7161
6919,3078,-6905
7175,3334,-6905
7175,3334,-6649
6919,3078,-5881
7175,2822,-5113
7175,2566,-4601
6663,1798,-4601
6663,-250,-3322
6663,-1018,-2298
6407,-762,-762
6151,-762,-762
6151,-762,-1530
6919,-1018,-1274
6663,-1786,-2810
5639,-1786,-4602
5639,-2554,-4858
5383,-3834,-5114
5895,-3578,-6906
6151,-2554,-7418
6151,-1530,-8442
6407,-1530,-8954
7431,-506,-9466
7687,1798,-9721
7431,4614,-10489
7687,6662,-11513
8455,8454,-11769
9735,11526,-13049
9991,14342,-14073
9735,14854,-14585
10247,15878,-15097
11271,17670,-15609
11015,19206,-16633
10759,19462,-16889
10759,19718,-16633
11015,19718,-16633
11271,20230,-16633
11527,20742,-16889
11527,20998,-17145
11527,21510,-16889
11271,22278,-16633
11271,22278,-16889
11527,22022,-16889
11527,20998,-15609
11271,20486,-15097
11015,20230,-15097
11271,19974,-15097
11015,19974,-14841
11015,19718,-15097
11271,19462,-14841
10759,16902,-14073
9735,15878,-13561
8967,15622,-13305
8967,15622,-13049
8711,14854,-12025
8711,14342,-11001
8967,14342,-11001
8967,14342,-11257
8199,14342,-10489
8199,14086,-10233
8967,14342,-10489
9735,14598,-11769
9735,14598,-13817
8711,14086,-14585
8455,14086,-15097
8455,14342,-16121
8711,14598,-17145
8711,14342,-16889
8967,15878,-17145
9223,16646,-17145
8967,16646,-17913
8711,17158,-17657
8967,17926,-17145
8967,18438,-16889
9991,18694,-16121
9991,18950,-16121
9735,19206,-15353
9735,19718,-14841
9991,19974,-14841
10247,21510,-14073
10503,22790,-14073
10503,22534,-13817
11015,22534,-13817
11271,22278,-14585
11015,22278,-14073
11527,22278,-14073
11783,22022,-13817
11783,22278,-14073
10759,22022,-13817
10759,22022,-14073
10503,21254,-13049
10503,20742,-13305
10247,20998,-13305
9991,20486,-13305
9735,18694,-12537
9735,18182,-12537
9991,18182,-12537
9479,18438,-13049
9479,17926,-13305
9479,16902,-12025
9223,16390,-10745
9223,16646,-10745
9223,16390,-11257
9223,17158,-11513
9223,17158,-11769
9735,17158,-12281
9991,16902,-13049
9479,16902,-14329
9223,16646,-15353
9223,16646,-15353
9223,16390,-16121
9479,15878,-17145
9735,16134,-18169
9223,16134,-17913
8967,15878,-17913
9735,15878,-17657
9735,16134,-17401
9991,16134,-17401
10247,15878,-17401
9991,15878,-17657
10503,16134,-17145
11015,16646,-17401
11015,16390,-17401
10759,16390,-17145
11527,19462,-17145
13831,29446,-20473
17927,-16634,-30457
23815,18694,17160
30983,774,-5879
-26106,-9210,-32759
-16122,-15098,4618
-5114,28422,-19701
2309,-24569,28683
5125,23559,23563
2053,-31225,-31478
-7163,29702,-10487
-20987,-30970,17160
30214,-6138,-21241
18950,-26106,1543
13063,32262,17927
9223,27398,30727
7431,22022,-25849
7687,20230,-23801
8455,11782,-18169
7943,9222,-15097
7687,8454,-11769
7175,8198,-9465
7175,8198,-8953
7175,8454,-7929
7175,7686,-5625
6919,6406,-5113
7175,5638,-5369
7175,5382,-4601
6919,5126,-3321
7175,4614,-2297
7175,3846,-2297
6919,3846,-2553
7175,4102,-4089
7175,3590,-6137
6919,3846,-7417
