-29177,-19706,27655
-28921,-19194,27143
-29433,-19194,26631
-30457,-19450,26631
-30457,-19450,26631
-30457,-19194,26375
-30457,-19194,26375
-30457,-19450,26631
-30713,-19450,26631
-30713,-19450,26631
-30713,-19194,26631
-31481,-18938,26375
-32249,-19450,26375
-31993,-19706,26375
-31993,-19706,26631
-32249,-19706,26375
-32249,-19706,26631
-32505,-19450,26119
32519,-19962,25863
32007,-20218,26375
32263,-19706,26631
32007,-19450,26887
31751,-19450,27143
31495,-20218,26887
31751,-20474,27143
31495,-19450,26631
30727,-19706,26631
30983,-19962,27399
30983,-19706,27655
30983,-18426,28167
30983,-17146,28935
31239,-16890,28679
32007,-16634,28935
32263,-16890,29191
30471,-18682,29703
28679,-19706,29447
27655,-19450,29191
27655,-18426,29191
27655,-16634,29191
28935,-15866,29703
28935,-15866,30215
29191,-14842,29959
29447,-13818,29703
29447,-12794,29703
29959,-12282,29703
29959,-11770,29703
29703,-10746,29447
29703,-10746,27655
29959,-9722,26375
30215,-9466,26375
30215,-9210,25607
29959,-9466,24583
30215,-9210,22791
30215,-9210,22791
30215,-10234,22791
30215,-10746,21767
29703,-11258,20487
29191,-11514,20231
28935,-12026,19975
28935,-13050,19975
29191,-13562,19719
28167,-14586,19463
26631,-15866,18951
26119,-16378,18439
26375,-16122,17927
26375,-16378,17415
26119,-16890,17415
26375,-17146,17415
26119,-17402,17159
25607,-17402,17671
25351,-18170,17927
25351,-18938,17927
25351,-18682,17415
25351,-18682,16647
24839,-18682,16647
24839,-18682,16391
24583,-18938,16391
24327,-19706,16647
24071,-19450,16647
24327,-19962,17159
24071,-20218,16903
23815,-19962,17159
23303,-19962,16647
23559,-20218,16135
23559,-19962,16135
22535,-21498,15879
21511,-22010,15879
21767,-21754,16135
21767,-21242,16391
21511,-20986,16391
21767,-20730,16135
22023,-20730,16135
22023,-21242,16391
21255,-21754,16391
20743,-22010,16135
20743,-21498,16391
21255,-21498,16903
21511,-22010,16903
20487,-22522,16391
18951,-23034,15367
18695,-23290,15367
19207,-23290,16135
18951,-23290,15879
18183,-23034,15879
18183,-22522,16903
18695,-22010,17415
19207,-20474,17927
19719,-19194,18183
20487,-18938,19975
20231,-18682,20487
19719,-19194,20231
18439,-19194,18951
17671,-19450,16647
17671,-19194,14599
19719,-16890,13575
21511,-15354,12295
22279,-14842,9991
23303,-13818,8455
24071,-13562,7943
24071,-13562,7431
24071,-14074,6663
23303,-15610,6663
22535,-15866,7175
23047,-15098,7431
22791,-16122,7687
21255,-19194,8967
18439,-22522,11015
15879,-24058,13063
15367,-24826,15111
14599,-26106,15623
13575,-27642,15367
13319,-27898,14599
13063,-27642,14343
13319,-27898,14087
13575,-27898,14855
13575,-27642,15879
13575,-27130,16391
13319,-27130,16135
13063,-28154,16135
12551,-29690,17671
11527,-31482,20743
9991,-31994,23047
9479,-29690,24327
10759,-19194,22279
16135,1542,13832
25863,29190,-3320
-27898,-12282,-25592
-20474,-4090,19976
-19706,-14330,9224
-26362,24838,12296
28678,-6394,24583
19206,-25082,-30457
14854,-29178,-25337
14854,-28922,-24057
16902,-28410,-21753
17926,-28154,-15353
17414,-28410,-7161
17414,-28666,-5369
15110,-31738,5639
12807,32262,12807
11271,-32250,17159
10247,-31994,18439
9223,32262,18951
8711,32262,19463
8711,32518,20231
8711,-31738,20231
8967,-30970,19975
9479,-30970,19975
9479,-31226,20231
8967,-31738,20999
7943,-31482,20999
8199,-31482,20743
8199,-31482,20743
7943,-31226,20999
7943,-30970,20999
8199,-31738,21511
7943,-31738,21767
7943,-31738,22535
7943,-32506,22791
7175,-32250,22791
6919,-32250,23047
6919,-32250,23303
6663,-32250,23815
6919,-32250,23815
6919,-32506,24071
6407,-32506,24583
5895,-32506,24839
5895,-32762,25607
5639,32518,25351
5639,-32506,25351
5895,-32506,25607
5895,-32506,25863
5895,-32250,26375
5639,-31994,26887
5639,-31994,28423
5895,-31482,28935
5895,-31226,28935
5895,-30202,29447
5895,-29946,29703
6151,-29434,30215
5895,-28666,30215
5895,-28666,30983
5895,-28922,31495
6151,-27386,32007
6151,-26874,31751
6407,-25850,31751
6663,-24826,32007
6919,-24826,31239
6663,-24314,30471
6663,-23546,30215
7175,-22266,30215
7175,-22522,29447
6919,-22522,28679
6919,-22266,28167
7175,-22010,27399
7431,-22010,26631
7431,-22010,25607
6919,-23546,25095
6151,-24314,25095
6407,-24314,25095
6663,-24826,25351
5383,-25850,24327
4615,-25594,23303
4871,-27386,23559
5127,-27642,23815
4615,-27898,23303
3847,-29178,23047
3847,-29434,23047
4359,-28666,23559
4103,-28922,23815
3847,-29946,23815
3335,-30970,23559
2567,-31226,23559
2311,-31226,23559
2055,-31226,23303
2055,-32762,23303
1799,32006,24071
1799,32006,24071
2055,32006,23815
1031,-32762,23815
1031,-32762,24071
1543,-32762,24327
2055,32262,24839
2311,32006,25095
2567,31238,25351
1543,30982,25351
7,29702,25607
-505,29701,25607
-249,29445,25351
-505,29701,25351
-505,30213,25863
-505,30213,26119
-249,29445,26119
-505,29701,26631
-761,29701,27143
-761,29189,27911
-1017,29957,27911
-1017,29957,27655
-249,29701,27399
7,29702,27399
-761,29701,27655
-1785,27909,28679
-2297,28165,28423
-2553,29189,27655
-2553,28933,27143
-2553,28933,27399
-2041,29445,27655
-1529,29957,27911
-1273,30213,28679
-1785,30469,30471
-1529,31493,30983
-1273,31237,31495
-1017,32261,32263
-505,-31483,-31993
-505,-30971,-31993
7,-30458,-32761
775,-30202,31239
2055,-29690,29959
2567,-28410,27911
3591,-26362,25863
4871,-24570,23303
6151,-24570,22279
6407,-24826,21767
6663,-25082,21255
6407,-26362,21255
5895,-27386,20999
5383,-27386,21767
5383,-27642,22791
4103,-29434,24071
1799,-32250,25351
-1017,30725,27143
-3065,28677,29447
-4345,27397,31495
-4601,26117,31495
-4601,25605,31495
-4857,25093,32007
-5369,25093,32263
-5113,25349,32263
-5369,25349,32519
-5113,25861,32519
-4601,25861,32519
-4857,24581,-32761
-6137,23301,-31993
-7929,21253,-29433
-8185,18949,-26361
-8441,19205,-24057
-9209,24325,-23801
-9721,27397,-23801
-761,-4603,27143
11783,23558,7432
23047,-21754,-15096
28934,-19450,-31992
26886,27910,27400
18438,-1530,-30969
7686,-30970,-17657
-762,21765,-7929
-3066,19973,-4345
-2554,19717,-4089
-1274,20485,-2041
-1274,20741,5639
-1785,21253,14343
-2553,20485,20487
-4089,18949,25607
-5369,18693,31239
-6393,20229,-30201
-7929,19973,-28153
-9209,19717,-28153
-9977,19205,-26873
-9977,19461,-26105
-8953,20997,-26617
-8185,22021,-27385
-7929,21509,-27385
-8441,20741,-27129
-8953,20997,-26617
-8953,21253,-26361
-8953,21765,-26361
-8697,21765,-25849
-8697,20997,-25849
-8953,20997,-25593
-9209,21253,-25593
-9465,22533,-25849
-9209,22533,-26105
-8953,20997,-25081
-9209,20997,-24057
-9209,21253,-23801
-8953,21765,-24057
-8953,22021,-23289
-9209,21765,-23289
-9209,21765,-23033
-8953,21765,-22777
-8953,22021,-22777
-9465,21765,-22521
-9209,21509,-21753
-9209,22021,-20985
-9209,22277,-20985
-8953,23557,-20729
-7929,24325,-20217
-7417,24069,-19961
-7161,23813,-19961
-7673,25093,-19705
-7929,25605,-19193
-7417,26117,-18425
-6905,26373,-17913
-6649,27653,-17913
-6393,28933,-17657
-6137,29189,-16889
-6137,28933,-17145
-5625,30213,-17145
-5113,31237,-16889
-4857,32005,-16889
-4857,31749,-17145
-4089,32261,-17913
-4089,-31483,-18169
-3577,-30971,-18681
-3577,-30971,-19705
-3065,-30459,-20217
-2809,-29691,-20473
-2553,-29691,-21497
-2553,-29435,-22521
-2809,-29435,-23289
-2809,-29947,-23545
-2041,-30459,-24825
-2041,-30203,-25337
-2809,-31483,-26105
-3321,-32251,-26617
-3577,32517,-26873
-3321,32517,-27385
-3065,32005,-27641
-2553,31749,-27641
-2297,31237,-27641
-2297,31237,-28153
-2297,30469,-28409
-2297,29701,-28921
-2553,29445,-28665
-3321,28933,-28665
-3065,28933,-28921
-3065,28421,-28921
-3321,28165,-28921
-3065,28421,-28665
-2809,28165,-28921
-2809,28165,-28921
-3065,27909,-28665
-2809,27909,-28665
-2553,28165,-28665
-2297,27653,-29433
-2297,27397,-29433
-2297,26885,-29433
-2297,27141,-29689
-2297,27141,-29945
-2297,26885,-29945
-2297,26885,-29177
-2297,27141,-29433
-2297,26373,-29689
-2041,26373,-30969
-2297,26373,-31225
-2297,26885,-30969
-2041,27141,-30713
-1785,27141,-30713
-1529,27141,-30713
-1273,28165,-30457
-1017,27909,-30457
-505,27653,-30713
-505,27909,-31225
-249,28677,-31481
519,29446,-31481
263,29190,-31737
263,28678,-31737
263,27910,-31481
519,28422,-31481
519,28934,-31737
1287,30470,-32249
2567,30982,-31993
2567,30982,-31481
2567,30982,-30457
2567,31750,-29689
2823,32262,-28921
2823,-32250,-28409
2823,-31482,-27641
4103,-30458,-27641
5383,-29690,-29689
5639,-29434,-31993
5639,-29434,31751
6919,-26618,30215
9479,-24826,27911
11271,-23546,25095
12039,-23290,23815
12295,-23034,23815
12807,-23546,23303
12551,-25338,21767
12039,-26106,21767
11015,-26362,22279
11015,-26618,22535
11271,-27642,22791
9735,-29946,24839
6151,-32506,26887
3847,31238,28423
3591,29958,28935
4103,29702,28935
3847,28166,28679
3079,27910,28935
3079,27654,28935
2823,27910,28423
3079,27654,28167
2823,28422,27911
3335,29190,27911
3591,28934,28167
3591,27398,28679
2823,23814,30727
519,22278,-31225
-505,23301,-29177
-505,29957,-29177
3847,-20474,30983
12551,3846,17672
24071,-32506,-3064
-30202,-14842,-25848
-24314,-15098,22792
-26874,29190,19720
27910,-2298,29447
15110,-29178,-22521
8198,24838,-14329
7174,22022,-11769
8454,22022,-11513
8710,22534,-11257
9478,24582,-2297
9734,24838,6151
9479,23558,12551
7687,23046,18951
5895,23046,23559
5127,24582,26375
5383,25094,27655
4615,25094,27655
3079,25094,27655
3335,25606,27399
3847,25606,27655
3591,26118,27655
3591,26886,27911
3847,27142,27911
5383,26886,27655
5383,26886,27655
5383,27398,27911
4871,27654,27911
4615,26886,28167
4871,26374,28679
4871,26630,28679
4871,27398,28679
4615,27142,28423
4871,27398,28679
5383,27398,28679
5383,27142,28935
5127,27654,28935
4871,27910,29703
5383,27910,30215
5639,27654,29959
5383,27654,29959
5383,28166,30215
5895,28678,30471
6407,28678,30727
6407,28934,31239
6151,28934,31495
6151,29190,31495
6151,28934,31751
6151,29702,31751
6663,30470,32263
7687,31238,32519
7431,31494,-32761
7175,31494,-32761
7431,-32250,-32505
7687,-31482,-32249
8967,-30970,-31993
9223,-30458,-31993
8967,-29946,-31225
9479,-29434,-31225
9991,-29178,-31225
9991,-28410,-31993
9991,-27642,-31993
10503,-26618,-31737
11527,-26106,-31737
11783,-25594,-32761
11783,-24570,31751
12295,-23546,30215
12551,-23290,29703
12551,-23034,29703
12551,-23034,28423
12807,-23290,27399
12807,-24058,27143
12807,-24314,27143
12807,-24570,26119
12551,-25594,24839
12807,-26106,25095
12807,-26618,24839
12807,-27386,23815
12551,-27898,23559
12039,-28410,23559
11527,-29178,23815
11527,-29434,23303
11783,-29434,22279
11527,-29946,22279
11527,-30458,22535
11271,-30970,22279
11271,-31226,22279
11015,-31738,22535
11015,-31738,22279
11271,-31482,22279
11783,-31482,22279
11783,-31738,21511
11783,-31994,20999
12039,-31994,20999
11783,-32250,21767
11271,-32506,22023
11015,-32506,22023
11015,-32762,21767
11527,-32506,21767
11783,-32506,21767
11783,-32250,22023
11783,-32506,21511
11783,32262,21511
11015,32006,21767
10759,32006,22535
11015,31750,22535
11015,32518,22279
11015,-32506,21767
11015,-32506,20999
11271,-32762,20999
11271,-32762,21255
11015,32518,21255
11015,32006,21511
11271,32518,21511
11271,-32762,21255
11527,-32506,21255
11271,-32250,20487
11271,-32250,20231
12295,-31994,20487
12551,-31738,20487
12295,-31738,20231
12551,-31482,20487
12807,-31738,20999
12551,-30970,21767
12551,-29434,22535
14087,-28410,23303
14343,-28410,24071
14343,-28666,24583
14599,-27898,25095
14599,-26362,25095
15111,-25594,24327
15879,-25338,21767
17159,-24570,19207
18439,-22266,16903
18695,-21242,16391
20231,-20474,13063
21511,-20218,11271
21767,-19962,10503
22023,-20218,10247
21767,-21754,10247
21255,-23034,9991
20999,-23034,9991
21255,-22778,11015
19719,-24058,12039
17415,-26618,13575
15367,-29434,15367
13831,-31226,17671
13063,-31994,19207
13063,-31994,19463
12807,-32506,18695
12807,-32506,18439
13063,-32250,18439
13063,-32506,18951
12551,32518,19207
12551,32518,19463
12807,-32762,19463
12807,-32762,19463
12295,31238,20231
11271,28934,22791
11015,28422,23559
8967,28422,27143
8711,-30458,27143
12807,-14586,21255
22023,11526,7432
-30969,-26106,-15096
-20218,-9466,27656
-15354,-11258,12808
-18426,32262,11272
-28666,6,21768
24326,-26874,-28921
16390,28166,-19961
15366,25862,-17657
16902,25862,-17913
17414,26886,-15609
17414,27142,-7673
17158,27398,263
16903,27654,6919
15879,27910,13063
15623,29190,17927
15623,30726,21767
14087,28166,22535
11271,25606,22279
8967,25862,21767
8967,28678,21511
9991,30214,21511
11783,29702,22023
12039,29190,22535
11015,28678,23047
10759,28422,23047
10759,28678,22791
11015,28678,22535
11015,29702,22535
11527,30214,23303
12551,30470,23559
12551,30214,24071
12295,30214,24327
12295,30470,25095
12295,30470,26119
12551,30470,25863
12551,30726,25607
12807,31238,26119
13063,31238,26631
13063,31494,27143
13319,30982,27399
13319,30726,27399
13319,31750,27655
13319,32006,27655
13575,31750,27911
13575,32262,28167
13319,32518,28167
13319,32518,28935
13575,-32762,29703
14087,-31994,30727
14087,-31226,30983
14087,-30970,30983
14343,-30714,31495
14343,-30202,31495
14087,-29690,31751
14087,-29434,32007
15111,-28410,-32761
15367,-27642,-32249
15111,-26618,-32249
15623,-26106,-31993
16135,-25594,-31993
16647,-25082,-32249
16903,-24314,-31993
16903,-23546,-32249
16903,-23546,32519
16903,-23290,32007
16903,-22010,32263
17159,-20986,31495
17671,-20986,29959
18183,-20986,28935
17927,-20986,28423
18183,-20986,27911
17671,-21498,26887
17415,-21754,26631
16903,-23546,26375
16903,-23802,26631
16647,-24058,25607
16391,-24570,24839
15879,-25850,25095
15623,-26618,25095
15623,-26362,24839
15367,-26874,24071
15111,-28154,24327
15367,-28922,24327
14855,-28922,24327
14855,-28666,24071
14599,-29434,23815
14343,-30202,23815
14343,-30714,24071
13831,-30970,23559
12807,-31994,23815
12551,-32762,23815
12551,32518,24071
12295,32518,23815
12295,-32762,23559
12039,32518,23303
12039,32518,23303
12039,32006,23559
11527,31750,23303
11527,31750,24071
11015,31238,24327
10247,30726,24327
9991,30214,24071
9991,30214,24071
10247,30470,24071
10247,30726,23815
9991,30726,24839
9735,29958,24839
9735,29958,24583
9223,30214,24583
9223,30214,24839
8967,29958,24839
8711,29446,24327
8967,29702,24071
8967,29702,24071
8199,29446,24839
7943,29702,24839
8455,29702,24839
8711,29702,24839
8711,29958,24839
8455,29446,24839
7687,28934,24583
7431,29446,24839
7943,30470,25863
8199,30982,26631
8199,31238,27399
8199,31238,28679
8711,-32762,29447
9223,-31482,29703
9223,-31738,29447
9223,-31226,28935
10247,-29946,27143
11527,-29690,25351
12295,-28410,23303
13063,-26874,20999
15111,-25082,17927
16903,-24058,16135
16903,-24314,15367
16391,-26362,15111
15111,-27898,14599
15111,-28410,14343
15367,-28410,15367
14855,-28666,16391
13575,-29690,16647
11783,-31994,16903
9735,30470,18951
8455,29446,20743
4871,26374,23303
4615,26374,23559
4615,26118,23815
4871,25350,24071
5127,25094,23559
4871,25094,23559
5383,25350,23815
5639,25094,24071
5383,25094,24327
5127,24582,24327
4871,23814,25351
4103,20742,27399
2823,19462,31495
775,19718,-31993
7,24070,-32505
2823,-28666,28935
9991,-5114,17927
22023,23814,-2040
-31482,-20986,-25848
-23802,-18170,21768
-24570,30726,16136
31750,1542,23560
19206,-30202,-27641
9990,19718,-17913
8454,18182,-15353
8198,17926,-12281
9734,18950,-11257
10246,18950,-4857
10502,19206,4359
10503,20486,10759
8455,19462,15879
5639,18950,21255
4615,19206,25351
4615,19974,27143
3847,20486,27911
3079,20486,27911
3079,20486,28423
3335,20998,28679
3591,21766,28167
3847,22022,28167
3079,21510,27911
2567,20998,27911
2567,21254,27911
2823,21254,28423
3079,21510,29447
3079,20998,29959
3079,20998,29703
2823,21254,29447
2823,22022,29191
3079,21766,29191
2823,20998,30471
2567,21254,30983
2567,20998,30727
2567,21510,30727
2311,22022,31495
2823,22022,31495
3079,21766,30983
3079,22278,30727
2823,23046,30983
3079,22790,31751
3079,22790,32519
3335,22790,32519
3079,23046,32519
3847,23302,-32761
4103,24582,-32761
4359,24838,-32249
4103,24838,-32249
4103,26118,-31993
4615,26630,-31481
5127,27142,-30457
5639,28166,-29689
5895,29446,-29689
6663,30470,-29689
7175,30726,-29689
7175,30982,-29945
6919,30982,-29433
7175,31238,-28921
7687,-32506,-28665
7687,-32250,-29433
7687,-31994,-29945
7687,-31738,-31481
8199,-31226,-31993
8455,-29946,-32249
8455,-29946,-32505
9223,-30202,32007
9479,-29434,30983
9479,-28922,30471
9223,-29178,29447
9223,-29690,28423
9479,-29946,27655
9479,-30458,27143
9223,-30458,27143
9223,-31226,26887
8199,-32762,26631
7943,32262,26631
8199,32262,26375
7943,31750,25351
7687,30982,24839
7431,30214,25095
7431,29958,25095
7431,29702,24327
7431,29702,24583
7175,28678,24583
7175,28678,24839
7431,28422,24839
7431,28422,24071
7175,28166,23047
7175,27910,23047
6919,28166,23559
7175,27910,24071
7431,27398,24071
6919,26630,23303
6663,26886,23303
6407,27398,23559
6663,27398,23559
6919,27142,23303
6919,27142,22791
6663,27142,22791
6663,27398,23047
6919,27398,23047
6919,27142,22791
7175,26886,22791
7175,26886,23559
7175,27654,23815
6919,27654,23815
6663,27654,23815
6919,27654,23559
7431,28166,23559
7175,28678,23559
7175,28422,23815
7431,28422,23559
7431,28678,22535
7431,28422,22791
7175,28678,23047
7431,28678,22791
7431,28422,22279
7175,29190,22535
7687,29958,22279
8711,30214,22535
8711,29958,22535
8711,30214,23815
8455,31494,24327
8711,32006,24583
9223,31750,25863
9479,32518,26375
9479,-31482,26887
9479,-30202,26631
10759,-29946,25351
12295,-29946,22791
12551,-29690,21767
12807,-26618,18695
15111,-25082,16903
16903,-23802,14599
18183,-23546,12807
18183,-23290,12551
17671,-25082,12295
17415,-26362,11015
16903,-27130,11271
16391,-26874,11527
16647,-26874,12295
15623,-28922,13575
13575,-31226,15111
10503,32262,16903
8711,29446,18951
8199,27654,19975
7687,26886,20231
7175,26630,19975
6919,26630,19463
6663,26630,19719
6919,26886,19975
6919,26886,20487
6919,27142,19975
6663,26630,19207
6407,25350,19207
6151,25606,19207
4103,21766,23559
2823,20486,27143
2055,21510,28935
2055,28422,27911
5639,-20218,22279
15623,5126,8200
28167,-32762,-14584
-26362,-16122,28424
-20986,-17146,12808
-24314,25094,11528
31238,-7930,22023
17926,30470,-28665
9990,20742,-19961
8710,18694,-17657
11014,18694,-17657
12038,20230,-15865
11782,21254,-6905
12038,22278,1799
11527,20998,7687
9735,19462,13319
7175,19974,18695
6151,22022,22023
6407,22022,22279
5383,21254,22535
4359,21510,22791
4103,22278,23303
4359,22534,23303
5127,22790,23559
5383,22790,23559
4615,23046,23815
4103,23302,23815
4103,23302,23559
4359,23302,24071
4615,23558,24327
4615,23046,24327
4103,22534,24583
3335,22534,24839
3335,22790,25607
3335,23046,25607
3591,23046,25607
3335,23302,25351
3335,23046,25863
3335,22790,26887
3335,22790,27399
3335,22790,27143
3335,23046,27143
3079,23814,27399
3591,24070,27399
3591,24326,27655
3335,24070,27655
3335,23814,28167
3591,24070,29447
3591,24838,29703
3335,24838,29703
3847,25094,29959
3847,25350,29959
3591,26118,30727
3847,26630,31239
3847,27398,31495
4615,27654,-32761
4615,28934,-32505
4871,29702,-32249
4871,29958,-32505
5383,29958,-32761
5895,31494,-32249
5895,32006,-32249
5895,31750,-32505
5895,31750,-32505
6919,32262,-32505
6919,-32250,-32761
6663,-31738,32263
7175,-31226,31239
7687,-30202,30215
7687,-29946,29191
7175,-30458,29191
6663,-30714,28679
6663,-31226,27143
6919,-31226,26631
6407,-31226,26119
6151,-32250,25351
6151,32006,24583
5639,31238,23815
5895,31238,24583
5383,30726,24583
4359,29190,24839
4359,29190,25095
4359,28678,24583
4103,28678,24071
3847,27654,23815
4103,26886,23815
4103,26630,23559
3591,26630,23559
3591,26886,23815
3847,26886,23815
4103,26118,23303
4359,25606,23047
4359,25350,22791
3847,25350,22791
3591,25606,23303
3591,25350,23047
3591,24326,23559
3847,24070,24327
3079,23814,24327
3079,24070,24071
3079,24326,23047
3335,24326,23303
3335,23814,23815
3335,23558,23815
3079,23302,24071
3335,23302,24839
3079,23302,25095
1799,22790,25095
1799,22790,24839
2311,23558,24327
2567,23814,24071
2567,23558,24071
2567,22790,24071
2567,22278,24839
1799,22534,24839
1799,23046,24583
2311,23302,24583
2823,23046,24583
3079,24070,24839
3079,24070,24583
2823,23814,24583
2823,23558,25095
3079,23558,25351
2567,23814,25863
2567,24838,26375
3079,25094,26631
3847,26630,27911
4103,27142,28935
4359,26886,29959
4359,27142,30983
4615,28422,30983
4615,29446,30215
5895,29446,28423
7175,29958,26119
8199,32518,24071
9479,-30714,22023
11271,-29178,20231
12551,-29178,18439
13063,-29434,17415
12807,-30458,17159
12551,-31994,16903
12039,32518,16391
11783,32518,16135
11783,-32250,16647
11271,32006,17927
10759,30726,18439
6151,26118,22279
3847,23558,24327
2567,22534,25351
2055,21766,26119
1799,20486,26119
1799,20486,25351
1799,20742,24839
1799,20742,25607
1799,20742,25863
1287,20230,26375
775,20230,26631
1031,20230,26631
519,18438,27143
-505,15109,29703
-2041,13317,-32249
-3577,13829,-29945
-3833,19973,-30201
-761,-32251,31495
7687,-7930,19207
20487,20998,-1784
32006,-24314,-25848
-26874,-23802,23048
-27898,23814,18696
27910,-7418,27911
23302,-18426,32007
6150,14598,-13049
4614,12038,-8953
5894,12038,-8441
7430,14086,-6905
7430,14086,-249
7430,14086,8967
6407,13574,15879
3335,12550,20999
1287,12550,26887
775,13574,30727
775,14342,31751
-1017,14341,32263
-1785,14341,32519
-1785,14341,-32249
-761,14341,-31993
-761,14597,-32249
-1273,15109,-32249
-1273,15365,-31737
-761,15365,-30969
-249,15621,-30713
7,15622,-31225
-505,15621,-30969
-1273,16133,-30457
-1273,15365,-29689
-1273,15109,-29433
-1017,15621,-28665
-1017,15365,-28665
-761,15365,-28409
-1017,15365,-28153
-1017,15621,-28153
-761,16133,-28153
-249,16389,-27897
-505,16645,-26617
-761,16133,-26105
-761,15877,-25849
-505,16389,-25849
-505,16645,-25849
-761,16645,-25593
-761,16645,-25081
-761,16901,-25081
-505,16901,-24825
-761,17413,-24569
-761,17669,-24057
-761,18437,-23033
-761,18437,-22265
7,18950,-21753
7,19974,-21753
7,20486,-21497
263,20486,-20729
263,20742,-20473
775,21766,-19961
1031,22534,-19705
1287,23046,-18937
1799,23814,-18937
2567,24582,-19193
2823,25350,-19449
2823,25606,-20217
3079,25606,-20473
3079,25862,-20217
3335,26630,-20729
3591,27142,-21497
3847,27654,-22777
3847,27654,-22521
4359,28166,-23033
4359,28166,-23801
4103,28166,-25081
4103,27142,-25337
4359,26374,-25337
3847,25094,-25849
3079,24582,-26361
3079,24326,-26105
3335,23814,-26361
3335,23046,-26361
3079,22278,-26873
2823,22022,-27129
2567,21254,-27129
2567,20486,-27385
2311,20230,-27385
2311,20486,-27385
3079,20486,-27129
2823,19974,-27641
2823,19206,-27897
3079,19206,-27641
3079,19462,-27129
2311,19462,-26361
1543,18950,-26105
1799,17670,-26617
1799,17414,-27385
1287,17670,-27385
1287,17414,-27385
1287,17670,-27129
1287,17670,-27385
1543,17414,-26617
1543,17414,-26105
1799,16902,-26105
1543,17158,-26361
1799,17158,-26361
2311,16390,-26361
2311,16134,-26105
2055,16390,-26105
2055,16646,-26105
1799,17158,-25849
1799,16902,-25337
1799,17158,-25081
2311,17158,-25849
2311,17158,-26361
2567,16902,-26361
2311,17158,-25593
2311,17158,-24825
2823,17414,-24825
3079,17414,-24825
3335,17670,-25081
3335,18182,-25081
3847,18182,-24825
4103,18694,-24313
4359,19206,-24057
4615,19718,-23289
4871,19974,-22265
4615,20742,-21241
4871,21510,-20217
5895,22278,-19705
6407,23046,-19193
6663,24070,-19449
6919,25094,-19705
7943,25350,-19449
8711,26118,-23289
9479,27654,-25593
10503,29702,-27897
13063,31750,-29945
14855,31750,-31737
14855,31238,-32761
15111,30982,31751
14855,28678,31495
14599,27910,31751
14087,27910,-32761
13575,27398,32519
12551,25862,-32761
11015,23558,-30713
7943,21254,-27641
5383,18438,-26617
4871,17158,-25337
4871,16646,-24569
4103,15878,-24313
3847,15622,-24313
3847,15878,-24057
4103,15622,-25081
4359,15878,-25337
4359,16390,-24825
4359,16646,-23801
4359,16646,-24057
4615,14342,-23289
3335,11526,-20473
1031,9734,-16633
-249,9989,-15097
263,16134,-15097
3847,30214,-19449
11271,-12538,-30713
23303,15878,13576
-29689,-28154,-9720
-23034,-26874,-27128
-24058,21510,-32248
32262,-8698,-24057
19718,26374,-9977
11270,11782,775
8967,8454,4615
9479,8710,4871
10503,9478,6407
11527,9990,13319
11271,11014,22535
10759,11270,28935
8711,9990,-31225
6919,10502,-25849
6407,12038,-21497
5895,12294,-20217
5127,12294,-20473
4359,12294,-19193
4615,12550,-18937
5127,14086,-18937
5895,14854,-19449
5895,14854,-19961
5895,14086,-19705
5895,14086,-18937
5639,15110,-18425
5639,15366,-18425
6407,15110,-17657
6407,14854,-17145
6151,15110,-17145
5639,14598,-16889
4871,14086,-17657
4615,13830,-17913
4615,13830,-17145
5127,13830,-16633
5383,14342,-15609
5383,14598,-15865
5639,15110,-15609
5895,15622,-15609
6663,15622,-15609
6919,15878,-15353
6919,16134,-15097
6919,16390,-14841
7175,16902,-14585
7687,17670,-14329
7687,17670,-14073
7687,17926,-13817
8199,18694,-13817
8455,19206,-13817
8711,19718,-12793
8455,19974,-12025
9223,19974,-11769
9991,20998,-11257
9991,21510,-11257
10247,22022,-10233
10503,23302,-10233
11783,24326,-10489
12551,24326,-10233
12295,25094,-9721
12295,25606,-9721
13063,26374,-9977
13319,27398,-10489
13831,28422,-10745
14343,29190,-11513
15111,29958,-12281
15879,30726,-12281
15623,30982,-13305
15623,30982,-13817
15879,31494,-14841
16135,31750,-15609
16647,31750,-16633
16647,31494,-17657
16903,31494,-18169
16903,31494,-18681
16647,29958,-19193
16647,29446,-19449
16647,29702,-19449
16903,29702,-19961
16903,28678,-19961
16903,28422,-20729
16903,28166,-21241
17159,27910,-21753
17159,27142,-21753
16647,26374,-22009
16903,26630,-22009
17159,26886,-22265
16903,26886,-22265
16903,26374,-22265
17159,26118,-22521
17159,26118,-22521
16903,25862,-22777
17159,25862,-22521
17415,26118,-22521
17927,26118,-22777
17671,26118,-22777
17671,26118,-22521
18183,25862,-22777
17927,25862,-23801
17671,25862,-24057
17671,25606,-23289
17671,25862,-23033
17927,26118,-23033
18183,25862,-23289
18439,26374,-23289
18695,26886,-23801
18695,26886,-23801
19207,27142,-23545
19719,27398,-23545
19463,28166,-24057
19719,28166,-24313
20231,27910,-24313
20487,27654,-24057
20487,28422,-24057
21255,28678,-24313
21767,28934,-24825
22023,29190,-25081
22023,29190,-25081
21767,29446,-25337
21511,29702,-25337
22023,29702,-25337
22535,30470,-25593
22535,31494,-25593
23047,31750,-25849
23303,32518,-24313
24327,-31994,-22777
24327,-31482,-22009
24327,-30714,-22009
24839,-29946,-20985
25607,-28922,-20217
26375,-27386,-20473
27399,-26106,-21497
28935,-25594,-21241
30727,-23546,-20729
-32761,-20730,-19961
-31993,-20730,-15609
32519,-20218,-9977
29191,-23034,-2809
22791,-28410,5895
14600,32262,16135
7176,29702,26119
-504,29445,-32249
-7672,32517,-31225
-9720,-31739,-30969
-16632,20741,26119
-20216,1285,23559
-23032,-17403,23046
-24312,-32507,25862
-23288,30469,28166
-18936,-28667,24326
-13304,-23547,17414
-9208,-19451,12038
-5624,-14331,7686
-2552,-11003,6406
8,-9210,6406
1032,-6906,6918
2056,-4090,7942
3848,6,7943
6664,5638,1543
9992,11526,-10489
14087,17670,-22521
17671,22790,-32505
20999,25094,24839
23047,26118,18695
23559,28166,16647
24839,30982,16903
26887,32006,17415
28167,-31994,17159
28679,-30714,16647
30983,-28154,18183
-32505,-26618,19463
-31737,-26362,19975
-31481,-26618,19207
-30969,-24826,17927
-30201,-23802,17159
-29177,-23546,16647
-28921,-22778,16647
-28921,-21754,15879
-27385,-20474,15111
-25849,-19450,14599
-25593,-18938,13831
-25593,-17914,12295
-24313,-16634,11015
-23801,-16122,10503
-23033,-15098,9479
-21753,-13050,8455
-20473,-11258,7175
-19193,-10234,5639
-17401,-8698,4359
-16633,-6650,2567
-15353,-4346,775
-13817,-3066,-505
-12538,-2042,-1017
-12282,-762,-1529
-9978,1798,-3832
-8442,3334,-4856
-7162,4614,-5368
-6650,5894,-6648
-5882,7942,-7672
-4858,8710,-7672
-4090,8966,-7928
-4090,9478,-7672
-4090,10246,-7160
-4090,10758,-6392
-4090,10758,-5880
-4346,11014,-4600
-5114,11014,-2552
-6394,10502,-1272
-7930,8198,-248
-9210,7174,1544
-10745,6662,3592
-12793,5126,5640
-14329,2566,7688
-15609,1030,9224
-17145,-1018,11015
-19449,-2554,12807
-20985,-5370,14599
-21497,-6906,16135
-22265,-7162,16647
-24825,-9978,19463
-26361,-12282,20743
-27129,-13562,21767
-27385,-14074,22535
-28409,-15354,23303
-28921,-17146,24583
-29689,-18426,24839
-29945,-19194,25607
-30969,-18938,26119
-31993,-19962,26631
-31993,-20986,26631
-31993,-21498,26887
-31737,-21242,27143
-32761,-21242,26119
31495,-21242,25863
32263,-20986,26375
-32505,-20986,26631
-32761,-21242,26631
32519,-21754,26375
-32761,-21498,26375
-32505,-21498,26119
-32505,-21754,25607
32519,-21242,25863
-32761,-20986,25863
-32761,-21498,25863
32007,-22010,26119
32007,-21754,26375
32263,-21754,25863
32519,-20986,25351
-32761,-20986,25095
32519,-21242,25095
-32761,-21242,25351
-32761,-20986,25351
-32761,-20986,25607
32519,-21242,25607
-32761,-21242,25607
-32761,-21498,25351
32519,-21754,25095
32007,-21754,25095
32007,-21498,24839
31751,-21498,24583
31495,-22010,24839
31239,-22266,25095
31239,-22010,25351
31239,-22010,25351
30983,-21754,24839
30983,-21754,24839
31239,-22010,25095
31239,-22266,25095
30983,-22266,25351
30727,-22010,25095
30983,-22010,25095
30983,-22010,25351
30983,-22010,25351
30983,-20730,24839
30727,-20986,24583
30983,-21754,24839
30727,-22010,24839
30215,-22010,24839
29959,-21754,24839
30215,-22010,24583
29959,-21754,24583
29959,-22010,24327
29703,-22010,24327
29703,-22010,24583
29959,-21754,24583
29703,-22010,24583
29191,-21754,25351
29447,-20730,26119
29447,-19450,26375
29447,-18938,27655
29959,-18938,28935
29959,-18682,29703
29703,-16634,29703
29703,-16122,29447
31751,-15354,26631
32519,-15098,24071
-31737,-12026,21255
-30713,-9722,19207
-28665,-8954,16391
-27385,-8954,15111
-27385,-8954,14343
-27897,-9978,13831
-28409,-11770,13575
-28921,-12026,13319
-29177,-12026,13319
-29177,-12026,13831
-29433,-12538,14599
-31993,-15354,15879
30727,-18682,17671
27911,-22266,19975
26375,-23034,21255
26119,-23034,22279
26375,-23802,22279
26375,-24314,21767
25607,-24570,20999
25607,-24570,21255
25351,-24314,21767
25095,-24058,22023
25095,-24314,22535
24583,-24570,22023
24071,-25850,22279
23303,-28154,24327
21767,-30458,28167
20743,-30202,31495
20231,-25338,31239
22279,-11770,25863
29959,12294,13064
-23289,-24314,-6392
-11002,-3066,-30456
-4090,262,15881
-5370,-16634,10760
-14586,18950,19976
-26874,-13050,-30713
28934,-29178,-20217
25350,32518,-15865
26630,32518,-15097
28678,-31994,-12537
28934,-30970,-6905
28678,-30202,775
27911,-29946,8199
25607,-31738,14855
23559,-31994,20487
22535,-30970,23815
22791,-30458,24839
21767,-30458,26887
20743,-30714,26887
20487,-30458,27143
20743,-29946,26887
20743,-29434,26887
20231,-29178,27143
19207,-30458,27655
18951,-30714,27911
19463,-30458,28423
19463,-29946,28423
19207,-29946,28679
18951,-29946,28679
18695,-29946,28423
18695,-29690,28935
19207,-29690,29703
18439,-29690,29447
18439,-30202,29191
18183,-30202,29447
17415,-30970,29703
17415,-30458,30471
17671,-30202,30983
17159,-30202,30983
17415,-29946,30983
17671,-29690,31751
17671,-29690,32263
17671,-29690,32519
17159,-29434,-32761
17159,-29434,-32761
16903,-29434,32519
16647,-29178,-32249
17159,-28922,-30969
17415,-28922,-30969
17159,-28410,-30713
16903,-27642,-29689
17159,-27130,-28665
17415,-26874,-28665
17159,-26874,-28409
17159,-26106,-28153
17415,-26106,-27385
17671,-26106,-27129
17415,-25082,-27129
16903,-24826,-27385
17159,-24314,-26873
17415,-23802,-26617
17671,-23546,-26617
17671,-22778,-26617
17927,-22778,-26873
17671,-23034,-27129
17159,-22522,-27641
16647,-22522,-28153
16903,-21498,-28921
17159,-21242,-28665
17415,-20986,-30201
17159,-20730,-31481
17159,-20218,-32249
17415,-20730,-32505
17415,-21242,32263
17159,-22522,31495
16391,-23034,31495
16135,-23034,31495
16391,-23802,30727
16391,-24826,29703
16647,-25082,29703
16135,-25594,29447
15367,-25850,29447
15623,-27130,29703
15623,-27642,29703
14599,-27898,29447
14087,-27898,29191
14087,-28410,28935
14087,-28922,28935
14087,-29434,28679
13831,-29434,28935
13831,-30202,29191
13575,-30714,29191
13575,-30970,29447
13575,-30970,29447
13831,-30970,29703
13319,-30970,29703
12807,-30970,29447
12807,-32250,29959
12551,-32250,30215
12295,-31994,29959
12039,-31994,30727
11783,32006,30727
11783,31750,30983
11527,31750,30983
11271,32262,30983
11271,32262,31495
11015,31750,31495
10503,30470,31751
10503,30214,31751
10759,30726,32519
10759,30982,32519
10759,30982,32519
9991,29958,32263
9735,30214,32263
9735,29702,32519
9223,29702,32519
8967,29702,-32761
8967,29446,-32249
9479,29190,-32249
9735,30214,-32249
9479,30726,-32249
8967,29958,-32505
8967,29958,-31993
9479,30726,-30457
9735,31750,-29177
9991,32262,-28153
9735,31750,-28153
9735,32262,-26873
9735,-32506,-25849
9735,-31226,-26105
10503,-30202,-27641
11527,-30202,-30201
12295,-30202,-31225
12295,-28922,-32249
13831,-26874,30215
15623,-25338,27399
16903,-25082,26375
16903,-25338,26375
16647,-26362,25351
16647,-28154,24583
16391,-29178,24583
15623,-29178,25607
15367,-29434,26631
15111,-30714,26375
13063,32262,27399
9735,29702,30215
7431,27142,-32249
6919,25606,-31225
6919,24582,-30969
5383,23814,-30457
4871,23558,-29689
5639,23302,-29945
6151,23814,-30201
6151,24070,-30201
5383,23558,-29945
4615,22022,-29433
4615,22022,-29433
4615,21510,-28153
3591,18438,-25849
1287,15622,-22265
-761,15365,-20217
-761,21509,-20217
2567,-29178,-24825
10247,-6138,29447
21767,21254,9736
-31993,-23802,-13560
-28922,-18938,-19704
-28922,23558,30216
26886,-7162,-27641
16646,30470,-15353
8966,17670,-6137
5894,14854,-2297
6918,14598,-2041
8966,16134,-249
9222,16134,8455
8711,16646,18439
7687,15622,25351
6407,13830,30727
4871,13830,-29689
3847,15366,-25337
2823,15622,-23545
2055,14598,-23801
1287,13830,-23545
1031,14598,-23033
1287,15878,-22009
1543,16646,-22265
1799,16390,-22009
1799,16390,-22009
1543,15878,-22009
1287,15622,-21497
1543,15366,-20473
1543,15110,-20217
1799,14854,-19961
1543,14854,-19961
1543,15110,-19705
1287,15110,-19705
1543,14854,-19961
1287,14854,-19705
1031,15110,-19193
775,14854,-18169
519,14598,-17913
1031,14342,-17657
1543,14342,-17657
1543,14598,-17401
1543,14854,-17401
1799,14854,-16889
1799,15110,-16633
1799,15366,-15097
1799,15110,-15097
1799,15110,-15353
2055,15366,-15097
2311,16390,-14585
2055,16390,-13817
2567,16902,-13561
3335,17926,-12793
3591,18438,-11769
3591,18182,-11513
3591,18950,-11001
3847,19974,-10489
4871,20998,-10233
5127,21254,-9977
5127,21254,-9977
5127,21766,-9209
5639,22790,-8697
6151,22790,-8185
6407,23046,-7929
6663,23814,-8185
6407,25094,-8185
6407,25862,-9977
7175,26374,-11001
7431,26374,-10745
7431,26630,-12025
7175,26118,-13049
7175,26374,-14585
7175,26374,-14841
7687,26630,-14841
7943,26374,-16121
7943,25862,-17401
8199,24582,-17145
7943,24070,-16889
7687,23814,-17913
7687,23814,-18425
7431,23046,-18425
7431,22022,-18681
7175,21510,-18681
7175,21254,-19193
7175,20742,-19449
7175,20486,-19193
7175,20230,-19193
6919,19718,-18937
6919,19718,-19193
6663,19206,-19193
6663,18950,-18937
6407,18438,-19193
6407,18182,-19449
6663,17926,-19705
6663,17670,-19705
6407,17670,-19449
6407,17926,-19705
6663,18182,-19705
7175,17670,-19449
7175,17670,-19705
6919,17926,-19705
6919,17158,-19705
6663,16646,-19193
6663,16646,-18937
6407,16646,-18937
6407,17414,-19193
6663,17414,-19193
6663,17158,-19193
7175,17158,-19193
7175,16902,-19449
7175,16646,-19705
7175,16646,-19705
6919,16646,-19961
6919,16646,-19705
7431,17158,-18937
7687,17414,-18681
7943,17414,-19193
7687,16902,-19705
7687,17158,-19449
7687,17414,-19705
8199,17158,-19193
8199,17926,-18937
8711,18438,-19193
8711,18950,-18681
9223,19718,-17401
9991,21510,-17145
10247,21510,-16121
10247,22022,-15097
10503,22278,-14841
10759,22790,-14841
12039,24582,-16889
13063,25094,-19193
13831,25606,-21497
15367,27398,-23801
16391,29446,-25593
17671,29958,-26617
18951,29958,-27641
19207,29958,-28665
19207,29190,-28921
18951,27910,-28665
18951,27398,-28665
18695,27398,-28921
18183,27654,-29177
17415,25862,-28153
15367,22022,-25337
12807,19718,-23289
11527,18438,-22009
11271,17926,-21497
11015,16902,-21241
11015,16390,-20985
11015,16390,-21241
11015,16646,-21497
11271,16902,-21241
11527,16390,-21241
11527,16390,-20473
11527,16646,-20473
11783,16390,-20985
11271,14598,-20473
10247,12294,-17913
9479,11014,-14073
8711,12294,-12025
8455,19462,-13305
12551,-28666,-19961
21511,-3066,32007
-32249,24582,10248
-22521,-24826,-11768
-19194,-30202,-25848
-23290,13574,-27128
32262,-17146,-17145
22022,24326,-5113
15622,14598,2311
15879,14598,4615
18183,15878,5383
19207,16390,9735
19463,15878,17927
18951,15878,26119
17671,13574,31495
16135,11782,-28153
14855,12038,-22777
14599,13318,-21241
13063,13574,-18937
12807,12294,-18425
12807,12806,-18169
12807,14086,-18169
13063,14598,-17913
13319,14342,-18425
13319,13574,-18169
13575,13830,-18169
13319,14342,-17657
13063,14086,-17401
12807,14086,-17657
12807,14342,-17657
13575,14854,-17401
13575,14854,-17145
13063,14086,-16633
12039,14342,-16377
12295,14342,-16377
13319,14086,-15609
13575,15110,-15609
13831,15622,-15353
13575,15366,-15353
13063,14598,-15353
12807,14598,-15609
12551,14598,-15097
12295,14342,-14841
13063,14854,-14585
13831,16134,-14329
14855,16646,-14329
14599,16390,-14585
14599,16646,-14585
14599,16902,-14073
14599,16902,-13049
14343,17414,-12025
14599,17670,-11769
15111,17926,-12025
15367,18438,-11769
15623,18950,-11257
15367,19974,-11257
15367,20998,-11257
15879,21510,-10233
15879,22534,-9465
16391,23046,-9721
16391,24070,-9721
16647,24582,-9977
17159,25094,-9977
18183,25606,-9977
18951,26118,-10233
18951,27142,-10233
18951,27910,-9977
19207,28422,-9977
20743,30982,-10233
21767,31750,-10489
22023,32262,-10489
22023,-32762,-10489
22279,-32506,-11513
22535,-32506,-13049
23047,-32506,-15865
23815,-31226,-18425
25095,-29690,-20729
26375,-28410,-24057
27399,-28410,-27385
28423,-27898,-28921
28935,-27386,-29177
28935,-27642,-29433
28679,-29946,-30201
28935,-31482,-30201
28679,-31738,-29945
28167,-32506,-29945
26887,30982,-29433
25607,27398,-28153
23815,24326,-26105
21511,23302,-24313
20231,22278,-23801
19975,20230,-23801
19975,19718,-23545
20231,19718,-23033
20231,19974,-23033
20231,19974,-23289
20231,20230,-23545
20999,19718,-23545
20999,18950,-23289
20231,18694,-23289
19463,18182,-22521
19207,17926,-22265
18951,18182,-22777
19463,18182,-22777
19463,15622,-21753
18183,14086,-18425
17159,15878,-16377
17159,22022,-16377
20487,-29434,-20217
28423,-6906,-31225
-27129,19462,15368
-17913,-29690,-6648
-13818,-31482,-23544
-17146,13318,-28152
-26618,-17146,-19961
28422,24326,-6905
23046,17414,3079
22791,17414,5383
25863,19718,9479
26119,20230,12807
26887,20486,18183
26631,18950,24583
26119,16134,31495
24327,14342,-27897
22279,15110,-22521
21767,15878,-20217
21767,16134,-19449
21255,15878,-18169
20487,16134,-18169
20999,17414,-17913
21255,17158,-18169
21255,16390,-18169
20999,16390,-17913
20231,16390,-17145
20231,16646,-16889
20999,16646,-16889
21255,16902,-17145
20999,16646,-17401
20743,16646,-17401
20999,16646,-16633
20999,16390,-16121
21255,16390,-15609
20999,16646,-15865
21255,16646,-15353
21511,17414,-15097
22279,17670,-15097
22279,17926,-15097
22279,17926,-14585
22023,18438,-14073
22791,18182,-13817
23303,18694,-13561
23047,18950,-13049
22791,19206,-12537
23303,19718,-12025
23303,20230,-12281
23559,20998,-11513
24327,21766,-10745
24583,21510,-10489
24839,22022,-9977
24839,22278,-9465
24583,22790,-8697
25095,23814,-8441
25607,24326,-8441
25863,25350,-8185
26119,25862,-7417
26375,26374,-6905
26375,26886,-6905
26631,27398,-6905
27399,28934,-7161
27911,29446,-7417
27911,30214,-8441
27911,30726,-9209
28167,31238,-9465
28167,31750,-9977
28423,31750,-11001
28423,32262,-12281
28679,-32762,-13049
28935,-32506,-13817
28679,-32762,-14585
28935,32518,-15865
28935,32518,-16121
28935,31750,-16121
28679,30982,-16633
28935,30470,-17657
29191,30470,-17913
28423,30470,-17913
28167,30470,-18169
28679,30470,-18169
29447,29702,-17913
29191,28934,-18425
28167,27654,-18681
27655,27654,-18169
27655,27910,-18169
28423,27910,-17913
28679,27910,-17657
28679,27654,-18681
28935,27398,-18681
28935,26886,-18937
28679,26886,-18169
28679,26886,-17145
28679,26630,-16889
28679,26118,-17145
28935,25862,-17401
29191,25862,-17401
29191,25862,-17401
28679,26118,-17145
28167,25350,-16889
27911,24838,-16633
28423,25350,-16889
28935,25606,-16633
29191,25606,-15609
29447,25606,-16377
29191,25862,-17145
29447,25606,-17145
29447,26374,-16889
29447,26886,-16889
29447,26630,-16633
29703,26886,-16633
29959,26886,-16889
29703,26886,-16889
30215,27142,-16633
30727,27398,-16633
30983,27398,-16377
30983,27398,-16377
30983,27398,-16121
30983,28166,-16121
30983,28166,-16377
31239,27910,-16377
31495,27654,-16633
31495,28678,-17145
31495,29190,-17145
31495,28934,-16377
31751,28934,-16121
32519,29446,-15609
32263,29190,-15865
32263,28934,-15865
32519,30470,-15609
32519,30726,-15609
32263,29702,-15609
32263,29446,-15865
-32249,29446,-15865
-32249,30214,-15097
-32505,30726,-15097
-32505,30982,-14841
-32505,30470,-15097
-31993,30214,-15609
-31993,30214,-15353
-32249,30470,-15097
-31993,29958,-15097
-31737,29702,-14329
-31481,30214,-14329
-31481,30470,-14585
-31225,31238,-15097
-30713,31750,-15097
-30457,31494,-15097
-30457,31238,-15097
-30713,30982,-15097
-30969,31238,-14841
-30713,31238,-14841
-29689,31494,-14585
-29689,32262,-14329
-29689,32518,-14329
-29689,32262,-14841
-28921,-32762,-14585
-28921,-31994,-13817
-29177,-31738,-13049
-28665,-30714,-12281
-28409,-30202,-12281
-28153,-28922,-11001
-27897,-27642,-11001
-27641,-27130,-11001
-26617,-26362,-11769
-25849,-25850,-13817
-25337,-24570,-15865
-24057,-23546,-17401
-22521,-21498,-19961
-21241,-19194,-23033
-19961,-18170,-24825
-19193,-17658,-24825
-18937,-17658,-25081
-18937,-18682,-25593
-18681,-19962,-25849
-18681,-20474,-25337
-19193,-20730,-24825
-19449,-21242,-24825
-20473,-23034,-24313
-22521,-26106,-22265
-25081,-28666,-19961
-26617,-29946,-18425
-27129,-30714,-18169
-26873,-31226,-18169
-26617,-31226,-18425
-26617,-31482,-18425
-26617,-31226,-18169
-26361,-30202,-18425
-25849,-29946,-18425
-26105,-30202,-17913
-26105,-29946,-18169
-26105,-31738,-18169
-27129,31494,-15609
-28153,29702,-12025
-29433,29446,-10233
-29689,-32250,-9465
-28409,-21754,-12025
-22265,262,-20984
-11257,28678,25608
1287,-13049,2312
8455,-6137,-17144
8710,-17913,-26104
1798,19719,-21496
-8954,-12026,-8441
-18426,-29946,3079
-23033,31494,7943
-21753,31750,8711
-19193,-31994,8711
-18937,-31994,14343
-19705,-31738,23559
-19705,-31482,25607
-20729,31750,-29689
-22265,31238,-24057
-23289,32262,-18937
-24313,-32250,-17401
-24313,-31994,-17145
-25081,-32506,-16889
-25593,-32506,-16121
-25337,-32506,-16121
-25337,-31482,-16889
-25593,-30970,-16889
-25081,-30714,-16121
-24825,-30970,-15609
-24825,-31226,-15865
-25081,-30202,-15865
-24825,-30202,-15865
-25081,-30458,-15097
-25593,-30714,-14329
-25849,-30458,-14329
-25849,-30458,-15609
-25081,-30714,-15865
-25337,-30202,-15353
-25337,-29434,-14841
-25081,-29690,-14841
-25337,-29690,-14585
-24825,-29690,-14329
-24825,-28922,-13561
-24569,-28922,-13305
-24313,-28922,-13817
-24569,-28922,-14073
-24825,-29178,-13305
-25337,-29178,-12281
-25593,-29178,-12537
-25593,-28154,-12281
-25337,-27642,-12537
-24569,-27642,-12537
-24569,-27898,-12281
-25081,-26618,-12281
-25337,-26106,-12025
-25337,-26106,-11001
-25081,-26106,-10489
-24569,-25082,-10489
-24569,-24570,-10745
-24569,-23802,-10489
-23801,-23034,-10489
-22777,-21498,-10745
-22777,-20474,-10233
-23033,-20218,-9721
-22265,-20218,-9465
-22009,-19962,-9721
-22009,-19450,-10489
-22009,-18170,-11001
-22009,-17658,-11257
-21241,-17146,-12025
-20985,-16378,-13305
-20729,-15866,-14073
-20473,-15610,-14073
-20729,-15098,-14585
-20729,-15098,-15609
-20729,-14586,-16377
-20729,-14586,-16889
-20473,-15354,-16889
-20217,-15866,-18425
-20729,-16890,-19193
-22009,-17402,-19193
-21753,-17914,-19193
-21753,-18426,-19193
-21753,-18938,-19961
-22009,-19194,-21241
-22009,-18938,-21497
-21753,-20474,-21497
-21497,-20218,-21497
-22521,-19962,-21497
-24313,-15354,-23289
-28153,-9978,-28665
-29433,-9978,-30201
-30713,-15098,-25337
-30201,-18426,-22265
-27385,-25082,-19193
-23545,-23546,-19961
-23289,-20986,-22521
-25081,-21754,-23033
-26105,-23802,-22265
-25849,-24058,-21753
-25337,-24058,-21497
-25593,-23802,-21497
-25593,-23802,-21753
-25593,-25082,-21753
-25849,-25082,-21497
-25593,-24570,-21497
-25593,-24826,-21497
-25593,-24826,-21497
-25593,-24570,-21241
-25337,-24570,-21241
-25337,-24826,-21241
-25593,-24826,-21241
-25593,-25082,-21241
-25593,-25082,-21241
-25337,-25338,-20985
-25593,-25082,-20985
-25593,-25082,-20729
-24825,-24826,-20217
-24825,-24570,-20217
-24825,-23802,-20985
-24569,-24314,-20985
-24057,-24314,-20729
-24057,-24570,-20985
-24313,-24826,-20985
-25081,-24826,-20985
-25081,-24826,-20729
-24057,-23546,-21241
-23545,-23290,-21497
-23801,-23546,-20985
-24313,-22778,-19961
-23289,-21498,-18169
-23033,-20986,-17657
-22777,-20986,-16633
-23033,-20730,-16377
-23033,-19962,-16633
-22009,-17914,-18169
-21241,-17658,-20473
-20985,-17658,-22009
-19705,-16378,-23545
-18681,-14842,-25337
-17145,-13050,-27641
-16889,-12026,-29177
-15097,-11770,-31225
-14841,-12026,-31481
-14841,-13306,-32249
-14841,-13562,-32761
-15865,-14586,-32761
-16121,-15866,-31993
-16633,-16122,-30969
-18169,-17914,-30457
-20473,-20986,-28665
-23545,-24314,-26105
-25593,-25850,-23801
-25593,-25850,-23545
-25849,-27386,-24057
-26361,-28154,-24057
-26617,-28410,-23801
-26361,-27898,-23801
-26361,-27130,-24057
-26361,-26874,-24057
-26105,-27386,-24057
-26105,-27386,-23801
-26617,-27898,-23545
-27385,-30714,-22009
-28665,32006,-18937
-30201,30982,-15865
-30969,30982,-14841
-30201,-22266,-15353
-25081,-3322,-22777
-14585,24582,25352
-2809,-14842,2312
6151,-3833,-18680
8198,-14329,-29432
3078,25095,-27896
-8698,-7418,-13817
-19962,-29434,-505
-24826,31494,5127
-24825,30726,5383
-22265,31494,5383
-22009,32262,9991
-21753,-32762,17927
-22009,-31738,25351
-23545,32006,30727
-25337,30982,-28665
-26361,31750,-23545
-27129,-32506,-22265
-28153,-32506,-21753
-28921,-32506,-19961
-28921,-31994,-19193
-28665,-31738,-19449
-28409,-30458,-19961
-28409,-30202,-20217
-28665,-30458,-19961
-28665,-30458,-19705
-28153,-30202,-19705
-28153,-30458,-19705
-27897,-30458,-19705
-29177,-30458,-19449
-29433,-30202,-18937
-29177,-30714,-18937
-29177,-30970,-18937
-29177,-30970,-18681
-29433,-30714,-18169
-29689,-30970,-17913
-29689,-31226,-17657
-30201,-31226,-17657
-30457,-31226,-17401
-30201,-30714,-16633
-29433,-30714,-16633
-29689,-30714,-16633
-29689,-31226,-16889
-29689,-31482,-16121
-29433,-30458,-15865
-29433,-29690,-15097
-29689,-29690,-14329
-29945,-29946,-14329
-30201,-29946,-14585
-29945,-28922,-14329
-29689,-28922,-14073
-29177,-28410,-13049
-29433,-28154,-12793
-29177,-27642,-13049
-28921,-27642,-12537
-28921,-26618,-11513
-28665,-26106,-10489
-28665,-25850,-10489
-28921,-25082,-11257
-28665,-24826,-11513
-28153,-24058,-11001
-28153,-23802,-10489
-27897,-23290,-10489
-27897,-22266,-10745
-27897,-22010,-11513
-28153,-22266,-11769
-28153,-22010,-12537
-27641,-20986,-13305
-27385,-19962,-14073
-27129,-20218,-14585
-27641,-20218,-15097
-28409,-20986,-15865
-28665,-21242,-16889
-28153,-20986,-17145
-27897,-21754,-18169
-27897,-22522,-18937
-28153,-23290,-19449
-28665,-24058,-19449
-28665,-24570,-19449
-28921,-25594,-19449
-29945,-26106,-19705
-29945,-26618,-19705
-29945,-26874,-19961
-30201,-27386,-19961
-30201,-27642,-19961
-30457,-28410,-20217
-29945,-28666,-20729
-30457,-29690,-21497
-30969,-30458,-21241
-31225,-30202,-20729
-31225,-29946,-20729
-30713,-30458,-20985
-30713,-30714,-20473
-30713,-30714,-20473
-30457,-30458,-20217
-30457,-31226,-19961
-31481,-31738,-19961
-31993,-31994,-20217
-31737,-31994,-20217
-31225,-31482,-19961
-31225,-31738,-20217
-31481,-31738,-20729
-31225,-31738,-20473
-31481,-32250,-20217
-32249,-32506,-19193
-32505,-32506,-19193
-32249,-32762,-19449
-32249,-32762,-19449
-32505,-32506,-19193
-32505,-32506,-19449
-32249,-32250,-19449
-31993,-31994,-19449
-32249,-32506,-18937
32519,-32762,-18681
32519,-32762,-18681
-32249,-32250,-18937
-31993,-31738,-19193
-31993,-31994,-19193
-31737,-31738,-18937
-31737,-31738,-18937
-31993,-31738,-18681
-31993,-31994,-18169
-31993,-31738,-17145
-31993,-31738,-17401
-31737,-31738,-17913
-31481,-31738,-17657
-31481,-30970,-17657
-31481,-29434,-17401
-30969,-29434,-15609
-30713,-29690,-14073
-30713,-28666,-13305
-30713,-28666,-13049
-30713,-28410,-12793
-30969,-27130,-12793
-29945,-26106,-14329
-28665,-25850,-16889
-28153,-24826,-19193
-27641,-23034,-19961
-25593,-20986,-22265
-23289,-19706,-25081
-22521,-19450,-26617
-22265,-19706,-26361
-22521,-20986,-26873
-22777,-22010,-27385
-23289,-22778,-27641
-23289,-22778,-26361
-23801,-23034,-25849
-25081,-25338,-25337
-25593,-26618,-25337
-29689,-30202,-21753
-31993,-32506,-19705
32519,32006,-18681
-32761,31494,-18425
32519,31238,-18169
-32761,31238,-17401
-32249,31494,-17401
-32249,31494,-17145
-32505,31238,-17145
-32761,30726,-17657
32263,30470,-17657
32007,30470,-17401
31751,28934,-15865
30215,25606,-13049
28935,24582,-8953
28167,25862,-6905
28679,-30970,-8697
32263,-14330,-15353
-23801,11782,-30712
-10233,-25082,13320
775,-9209,-8696
4614,-15097,-22776
262,26119,-23544
-10746,-6650,-10745
-15610,-16378,-5881
-29690,25094,10247
-30457,23046,12295
-28409,23302,12551
-26873,25606,15879
-26873,26630,24327
-26617,27142,-32505
-26873,26374,-26105
-29689,25350,-20729
-31481,25094,-15865
-32505,25606,-13305
32519,25862,-12537
31495,26118,-12025
30983,27398,-11001
-32505,28934,-10489
-31225,29958,-10233
-31225,30214,-10233
-32249,28934,-9977
32007,26886,-9721
30471,26630,-10233
29703,26886,-11513
29703,27910,-11513
30727,28166,-9721
31495,28934,-7929
31751,29190,-8441
31751,29190,-8953
31751,29446,-8441
31751,29446,-7929
32519,29446,-7161
32519,29190,-7161
32263,29190,-7161
31751,29190,-5881
31751,29958,-5369
32007,29958,-5369
32263,29958,-5113
32519,31494,-5113
-32761,32006,-5113
-31993,31750,-4601
-31737,31750,-3833
-31737,30982,-3321
-31993,31750,-3065
-31993,-32506,-2553
-31993,-32250,-2297
-31481,-32250,-2297
-30969,-31994,-1785
-30457,-31226,-505
-30457,-30970,7
-29944,-30202,519
-29432,-28922,1031
-29176,-28666,1031
-29432,-28410,1287
-29176,-27386,1287
-28920,-27386,1543
-28920,-26618,1543
-28664,-25594,2055
-28408,-25594,2055
-27640,-25082,1799
-27640,-24570,2055
-27384,-23546,2311
-27640,-22522,1543
-27128,-21754,519
-26104,-21498,519
-25336,-20474,519
-25080,-19706,-761
-25081,-20474,-1785
-25081,-20474,-2041
-25849,-22522,-2809
-27129,-23546,-4089
-27641,-23546,-4857
-27385,-23802,-5113
-27641,-24314,-5113
-27641,-25338,-4857
-27897,-25850,-5113
-27897,-25850,-5625
-27897,-26618,-5881
-28153,-27130,-5881
-27897,-27386,-5881
-27641,-27898,-5881
-27897,-28410,-6905
-28665,-29178,-7417
-29433,-29178,-6905
-29433,-29434,-6393
-28921,-29434,-5881
-28153,-29434,-5881
-28409,-29946,-6137
-29177,-30714,-6905
-29177,-30202,-6905
-28665,-29690,-6393
-27385,-29690,-6137
-27385,-30202,-5625
-29177,-31482,-5369
-30713,-32250,-5881
-30713,-32250,-6649
-29945,-31994,-6649
-29177,-31482,-6137
-29177,-31738,-5881
-29433,-31738,-5625
-29689,-31994,-5369
-29689,-31994,-5625
-29945,-31994,-5625
-30201,-32762,-5369
-31225,32006,-5881
-31225,32262,-5881
-30969,-32506,-5881
-30201,-31994,-4345
-29177,-31994,-3833
-29689,-32250,-4089
-29945,-32250,-4345
-29945,-31994,-4345
-29689,-31994,-4601
-28665,-31226,-4601
-28665,-31482,-4089
-29945,-32250,-4345
-30201,-32250,-4601
-29689,-31738,-4089
-29433,-30714,-3577
-28153,-29434,-3321
-27385,-29434,-3321
-27641,-29690,-3065
-28153,-29946,-2553
-28921,-29946,-1785
-28665,-29434,-505
-27897,-28666,519
-27640,-26874,1543
-26616,-26106,1799
-26104,-26106,1799
-26104,-25850,-249
-26105,-25594,-2297
-25593,-23034,-4345
-23801,-20218,-5881
-20729,-18682,-7417
-18937,-18170,-8697
-18681,-17146,-10745
-18681,-17402,-12537
-18681,-18938,-12537
-18681,-20474,-12537
-19705,-20730,-12537
-19961,-20218,-12793
-19705,-20474,-12281
-18937,-20986,-10745
-20985,-23290,-8953
-23545,-25850,-7417
-25849,-28666,-5113
-27129,-30458,-3321
-27897,-31994,-3065
-29433,32006,-4089
-31481,31750,-5113
-31993,31750,-5113
-30713,-32506,-4089
-30201,-31994,-3321
-30457,-31994,-3321
-29689,32262,-3577
-29689,32518,-3833
-30201,30214,-2553
-32505,27654,7
31496,25606,3591
30472,25606,5639
30728,30726,6407
-32248,-19450,1799
-24824,4102,-9976
-11769,32518,-31992
775,-12537,9992
6663,-11001,-5880
4614,-29177,-10232
-4858,4614,-2040
-16634,-25594,12807
-25337,26118,23559
-27385,24582,26887
-26105,24582,26887
-24313,26118,28167
-23801,26630,-30457
-24313,27654,-21497
-24825,27654,-14585
-25593,26886,-9209
-27129,26886,-3833
-27385,27654,-1529
-29177,28166,1543
-30200,27910,1543
-30968,27910,1799
-30712,28934,1799
-30200,29702,1799
-30200,29446,1543
-30200,29190,2055
-29944,29190,2055
-30456,29190,1799
-30968,28678,1543
-31480,28422,1799
-31480,28422,2567
-31480,28678,2823
-32248,28678,2823
-31992,28934,3335
-31736,27910,3591
-31992,27654,3335
-32248,28678,3335
-31736,28934,4103
-31736,28422,4359
-31992,28422,4103
-31736,28166,4615
-31736,28166,4871
-31480,28166,4871
-31736,28166,4615
-31992,28678,4615
-31992,29190,5127
-31992,29190,5895
-31992,28934,6151
-31736,29190,6407
-31480,29190,6919
-31736,28934,7687
-31992,29702,7687
-31992,30214,7943
-31224,30726,7943
-30968,30982,8711
-30968,31750,9479
-30968,31494,9479
-30712,32518,10247
-30456,-32506,10759
-30200,-32506,11271
-30200,-31994,11015
-30456,-31226,11015
-30200,-30458,10759
-30200,-30458,10503
-29944,-29946,10247
-29944,-28666,9991
-29432,-28410,9991
-29176,-28410,8967
-29432,-28154,8199
-29176,-27130,7431
-29176,-26618,7431
-29432,-26874,6407
-28664,-26874,5383
-28408,-26618,4871
-28664,-26618,4615
-28664,-28410,3847
-29176,-29434,2567
-29688,-29178,2055
-29432,-28922,1799
-29432,-30714,2055
-29432,-31738,2055
-29176,-31738,1799
-30200,-31738,1799
-30456,32518,1543
-30200,31494,1543
-30200,31750,775
-30456,31750,263
-30456,30470,519
-30456,29190,519
-30456,28934,519
-30456,28934,263
-31480,28678,775
-31480,27654,1287
-31224,27398,1543
-31224,27910,263
-31224,28166,263
-31480,27142,519
-31736,26630,519
-31992,25862,263
-32248,25862,263
-32504,25862,519
-31992,26118,519
-31736,25606,775
-31992,25094,775
-31992,25094,519
-32760,25350,7
-32760,24838,7
-32504,24326,519
-31992,24070,1031
-31992,23814,1287
-32760,24070,263
-32760,24070,-249
-32505,23814,-249
-32505,24326,7
-32760,24838,775
-32760,24838,519
-31992,24582,519
-31992,24582,519
-32248,24326,263
-31992,24326,7
-31736,24582,7
-31736,24582,519
-31992,24582,1031
-31736,24838,1287
-31480,25350,1287
-31480,25350,1287
-31480,26374,1287
-30200,27654,1543
-29688,27910,2311
-29432,28422,3847
-29688,29446,5127
-29944,30470,5895
-29176,30982,6151
-27640,32262,5895
-26872,-31226,4871
-26616,-31226,2055
-25592,-30202,-505
-23545,-28154,-2553
-22265,-25594,-5113
-20985,-24570,-7417
-19705,-24826,-9209
-19449,-24570,-8953
-19705,-26106,-9465
-19961,-27130,-9977
-20985,-27898,-11001
-20729,-27642,-10745
-20729,-27642,-9721
-21497,-28666,-8697
-24057,-31482,-6905
-26105,30982,-5369
-27897,29702,-2297
-27897,29446,-1017
-28409,28934,-1273
-28409,28166,-1529
-28409,28166,-1529
-28409,27910,-1785
-27897,27910,-2041
-27641,28678,-2041
-27897,29446,-1529
-28153,29190,-1273
-27129,29446,-1273
-26617,28678,7
-28152,25094,2567
-30200,23302,5895
-31480,24582,7431
-30200,-32762,7431
-26104,-16378,1543
-16632,9478,-14072
-13049,18182,-19704
7175,-10745,7432
12551,-13049,-7672
8454,29191,-8952
-1786,-3066,2055
-13561,-29946,17159
-20217,26118,25607
-20985,23558,28423
-19705,23814,28423
-18937,25606,30727
-18425,26886,-27129
-18425,27142,-18937
-18937,26886,-13049
-20473,26118,-7417
-22009,26630,-1785
-22521,27910,1543
-23032,27910,2311
-23800,27910,2567
-24312,28678,2823
-24312,29190,2823
-23288,29702,2823
-22520,30726,2823
-22520,30982,2823
-22520,30982,3591
-22520,30982,3591
-22008,31238,3335
-21752,31238,3335
-21752,32006,3335
-22008,31494,3079
-22008,31750,3335
-22008,31494,3847
-22008,32006,4103
-21240,-32762,4359
-20984,-32506,4359
-20984,-32506,4359
-20472,-32506,4103
-20472,-32250,3847
-20216,-31738,3847
-20216,-31226,4359
-19704,-30714,5127
-19448,-30458,5127
-18936,-29690,5127
-18424,-29178,4871
-18168,-28922,4871
-18424,-28666,5639
-18168,-27642,5639
-17400,-27130,5383
-17144,-26362,5895
-16632,-26362,6663
-16888,-25594,7431
-16376,-24570,7431
-15096,-23546,7175
-15096,-22778,6919
-15096,-21754,7943
-14328,-20986,8455
-13304,-20218,8199
-13048,-19962,8199
-13048,-19194,8455
-12792,-17914,7687
-12536,-17146,7175
-12024,-16122,7175
-11512,-15610,7431
-10744,-14586,6919
-9976,-13818,6407
-9720,-13306,5383
-9976,-12794,4615
-9720,-11770,4359
-8952,-11258,2567
-8696,-11002,1543
-8952,-11002,775
-8696,-10746,7
-8696,-10746,-1017
-8953,-10746,-2041
-8185,-11002,-2041
-8185,-11770,-3065
-8185,-11770,-3833
-8185,-11770,-4601
-7929,-12794,-5113
-8185,-13818,-5369
-8185,-14074,-5369
-8185,-14074,-5625
-8185,-14074,-6137
-8441,-14586,-5881
-7673,-14586,-6393
-7417,-14842,-6649
-7417,-14842,-7417
-7417,-15098,-7161
-8185,-15610,-7673
-7929,-15866,-8185
-7417,-15866,-8697
-7417,-15866,-8953
-7417,-15098,-8953
-7161,-14842,-9721
-6649,-14586,-9721
-6649,-15098,-9465
-6393,-15354,-9721
-6649,-15866,-10233
-6905,-15610,-10233
-6905,-15098,-9977
-6649,-14842,-10233
-6393,-14842,-10745
-6393,-14842,-11513
-6137,-15098,-11257
-6393,-15098,-11257
-6649,-14330,-11513
-6649,-13562,-11513
-5881,-13818,-11513
-5369,-13818,-11769
-5369,-13562,-12793
-5113,-13050,-13305
-5113,-12538,-13305
-5113,-12538,-13049
-4601,-12282,-13049
-4089,-11770,-13305
-4089,-11258,-13305
-4345,-11514,-13305
-3321,-11002,-13561
-3065,-10746,-14329
-3321,-10490,-14841
-3321,-9978,-14585
-2809,-9722,-14841
-2553,-9978,-15097
-2553,-9466,-14841
-2553,-8954,-14585
-2809,-7674,-14329
-2297,-6906,-13817
-761,-5370,-13049
-761,-4858,-12025
-761,-4090,-12025
263,-2041,-11769
1799,-1017,-12793
2567,-249,-16121
3079,1287,-18424
4615,3591,-20216
7175,6151,-22520
9223,7431,-25592
9479,7431,-27896
9223,6663,-28152
9223,6407,-28152
9479,5895,-28664
9479,4871,-29944
9223,5639,-29944
8967,5639,-29688
8711,3591,-28920
6407,1287,-27640
3335,-1273,-25337
1543,-3321,-23545
1287,-4345,-22009
1287,-5113,-21753
1031,-5113,-22777
1031,-4601,-23033
2055,-3577,-23289
2311,-3321,-23289
1287,-4857,-23545
263,-4857,-23545
263,-3321,-23545
1287,-3321,-23545
2311,-3833,-22521
1031,-7929,-20473
-1785,-11002,-17401
-4089,-10234,-17401
-4601,-2298,-17657
-761,14854,-22520
8455,-26105,30728
20999,2311,8969
-31993,21767,-14839
-25594,21767,-31735
-29690,-761,31240
25606,32519,-25592
13318,3847,-11256
5382,-7673,-1273
3078,-9721,2311
4615,-9721,2823
6407,-7929,4615
6919,-5113,11783
6663,-4345,14599
6407,-4857,25863
5383,-5881,31239
3591,-4601,-28921
2311,-3833,-24825
2055,-3577,-23801
1543,-3321,-23801
263,-3321,-24057
263,-2041,-24313
519,-1529,-24313
519,-1529,-24569
7,-2297,-24569
-761,-2298,-24825
-1017,-2042,-24825
-1017,-1786,-24569
-761,-250,-24569
-761,6,-24824
-505,6,-24824
-249,774,-25336
-249,518,-26104
-505,774,-25080
-249,1030,-23800
263,519,-23288
519,263,-23288
519,2055,-23544
519,2311,-23800
263,2311,-23800
7,2311,-23544
7,2055,-23032
-249,2054,-22520
-249,2310,-22776
-505,3078,-22776
-249,4614,-22520
1543,5639,-21752
2055,5639,-21752
2055,6407,-21496
2055,6151,-20728
775,5383,-20216
519,5127,-20216
-505,4614,-19960
-1017,4358,-19704
-1529,5638,-20216
-1529,6406,-20472
-1017,7686,-19448
7,8455,-17912
775,9223,-17656
775,10247,-18424
519,11271,-18936
1031,11527,-18680
1287,11783,-18680
1287,12039,-18936
1287,12807,-19960
1543,13319,-21240
1799,14087,-21240
1543,14087,-21752
1031,14087,-22776
775,14343,-23800
775,14855,-24312
1031,15111,-25080
1031,15111,-25848
263,13831,-27384
7,13063,-27896
-249,13318,-27896
-249,12294,-28664
-505,11270,-29688
-1273,10502,-30200
-2297,9734,-30456
-2553,9222,-30200
-2297,8198,-30456
-3065,6918,-30968
-3833,6150,-31480
-3833,6150,-31736
-3833,5894,-31992
-4345,5126,-32248
-4857,4870,-32760
-4601,5126,32520
-4345,4870,32264
-5625,4358,32520
-6393,2310,32008
-6393,1798,31752
-6393,2054,31752
-7161,2310,32008
-8185,1542,31752
-8441,774,31240
-8441,774,30984
-8441,1030,30984
-8441,1030,31240
-8697,262,31240
-9977,-762,30983
-10489,-1530,30983
-10489,-1530,30983
-10489,-1530,30727
-10489,-1786,30471
-11257,-1530,30471
-11257,-1530,30215
-11257,-1530,30471
-11257,-1786,30471
-11257,-2042,30471
-11257,-2042,30215
-11769,-2042,29703
-12025,-1530,29447
-11513,-1530,29447
-11257,-1786,29191
-11513,-1786,29191
-12537,-2554,29191
-13305,-3066,29447
-13305,-3066,29447
-13817,-3066,29447
-14329,-3578,28679
-14585,-4090,27911
-14585,-4090,28167
-14585,-3322,28935
-14329,-2810,29447
-14841,-1530,30471
-14329,-1018,32007
-13817,-250,32519
-13561,-250,-32761
-13817,1286,-32760
-13561,2054,-32760
-12793,2054,31240
-12025,2310,28680
-11513,3334,26376
-11001,5382,24840
-9209,7686,23304
-7161,8198,19976
-6649,8198,18952
-6649,7686,17672
-6649,6150,17672
-6649,3590,17160
-8185,2822,17416
-8953,3078,17416
-8953,2822,18184
-9977,774,19464
-12793,-2554,20743
-16377,-5370,22023
-17657,-7418,24839
-18169,-8186,26119
-18425,-8954,25863
-19449,-10490,26119
-19449,-10490,26119
-19193,-10234,26119
-19449,-10490,25863
-19961,-10490,26119
-20729,-11514,25607
-20729,-11770,25351
-20729,-11514,25607
-20985,-14330,27655
-22777,-17146,31751
-24825,-18426,-31737
-26105,-16890,-31481
-26105,-15354,-30969
-20985,10758,26376
-11769,-28154,9992
775,-1017,-13816
12294,12551,29961
15878,6407,18953
9222,-18681,20232
-1786,13830,31496
-12282,-10234,-20473
-18938,-19194,-12281
-19706,-20730,-10489
-18682,-20218,-10489
-17914,-20218,-7417
-18426,-20218,1031
-20473,-19962,9735
-22265,-21498,15623
-23545,-21498,20487
-24057,-19962,25351
-24569,-19706,28935
-26361,-20474,29447
-27385,-20474,29703
-27385,-20218,30215
-26873,-19194,31239
-26617,-18426,31495
-26361,-18682,29959
-26105,-19194,29703
-26617,-19450,30727
-27129,-18938,31495
-26873,-18682,32007
-26873,-18682,32007
-27385,-18938,31751
-27641,-19450,31751
-27641,-19194,31751
-26617,-17402,32519
-24313,-14842,-32505
-22521,-13818,-31225
-22777,-15354,-30457
-24569,-18682,-29945
-27897,-21754,-29945
-31481,-23546,-31481
32519,-22522,-32249
-32249,-20474,-32249
-30457,-20218,-31481
-29177,-19962,-30201
-29433,-19962,-30201
-29177,-18682,-30201
-28409,-16890,-29689
-28409,-16890,-28409
-27897,-17402,-27897
-27641,-17402,-27897
-27897,-17402,-27897
-28921,-17146,-27641
-29433,-16378,-27641
-28665,-15866,-27641
-27641,-15610,-26617
-27129,-13818,-25081
-27129,-12026,-24313
-26105,-12026,-24313
-25849,-12282,-24057
-25593,-9978,-24057
-25081,-9722,-23801
-24825,-9466,-23033
-25081,-10490,-23033
-27385,-13562,-23801
-30201,-14586,-24569
-30713,-13306,-25081
-30201,-10490,-25337
-27897,-7930,-25593
-26617,-7930,-25593
-26617,-8186,-25337
-26617,-7674,-26361
-26361,-7674,-27385
-26105,-8442,-27385
-26873,-8186,-28409
-27129,-8954,-29433
-27129,-8954,-30201
-27129,-9210,-30201
-27129,-11002,-30201
-27641,-12282,-30457
-28921,-12282,-30969
-29689,-12026,-30713
-29433,-12538,-30713
-28409,-12794,-30969
-27897,-13050,-30713
-28153,-14330,-30969
-30201,-16634,-31737
-30969,-16890,-31481
-30969,-15610,-30969
-29689,-14842,-30201
-28921,-15098,-29433
-29177,-16634,-29689
-31993,-19962,-30457
31751,-21242,-31737
32007,-19706,-31481
-32505,-18426,-30969
-31993,-18170,-29433
-31225,-18170,-28921
-31481,-20474,-29177
-32761,-20986,-29177
31751,-20986,-29433
31495,-20986,-29945
31495,-21754,-29945
31751,-21754,-29689
30471,-22266,-29177
29447,-23546,-29177
29447,-22266,-28665
30215,-21754,-28665
30727,-22522,-27129
30727,-21498,-26617
30727,-21242,-27129
29959,-22266,-27641
29191,-22778,-28665
28679,-24314,-28665
28423,-24314,-28665
28423,-23546,-28409
28423,-23034,-27641
28167,-22778,-27641
27911,-23290,-28153
28423,-23034,-28153
28935,-22778,-27897
28679,-22778,-27641
28423,-22778,-26873
28423,-22778,-26105
29191,-22010,-25849
29703,-19962,-25593
29959,-20218,-25593
28423,-22266,-25849
27143,-22266,-24569
26631,-20730,-22777
27399,-18426,-21497
28935,-17914,-21497
29703,-17914,-21753
29703,-16890,-23033
29959,-16890,-24825
29959,-16890,-27641
31239,-14586,-29689
-32249,-11770,-31481
-30201,-10490,-32505
-29433,-10746,31239
-28409,-11002,30471
-28409,-11258,30471
-28665,-12026,30727
-28409,-13050,30727
-28153,-13306,30983
-28921,-14330,30983
-30713,-16890,32263
32007,-18682,-30969
29703,-21498,-28665
27399,-24826,-27385
25351,-27130,-26617
24327,-28154,-26617
22535,-29690,-27385
22535,-29434,-27129
23303,-28922,-27129
23559,-27642,-26617
23559,-26618,-25849
24583,-26362,-25593
26119,-25594,-25593
26375,-26106,-25593
26119,-27130,-23801
25095,-30714,-20217
22791,31494,-17401
19463,31494,-16377
18439,-26362,-17145
22023,-10490,-23801
31751,16902,24840
-20473,-19194,1032
-8953,-5882,-19960
-4858,-11514,32264
-9978,29702,31752
-21242,-2554,-22777
-32506,-27642,-8185
26374,29446,775
25607,27398,2823
27143,27910,2567
27399,28422,2567
28167,30982,13575
28423,31238,22535
27655,30726,28167
25351,29446,-31993
22791,30214,-26873
22279,31750,-24313
21767,31750,-24057
20999,31750,-23801
20231,32006,-23545
20487,32518,-23033
20999,-32250,-22777
21255,-32250,-22777
21255,-31994,-23033
20999,-31994,-23033
20999,-32250,-22777
20743,-32250,-22777
20743,-31994,-23545
20743,-31994,-23545
20743,-32250,-23289
20487,-32250,-22777
20743,-31994,-22009
20999,-31994,-22009
20743,-31738,-22265
20743,-31226,-22009
20743,-30970,-22009
20743,-31226,-22521
20743,-31482,-22265
20743,-31226,-22521
20999,-30458,-21497
20999,-30714,-21241
20999,-30714,-21497
20743,-29946,-21497
20487,-29946,-21497
20999,-29946,-21753
21767,-29178,-21497
21767,-28666,-21497
21511,-28666,-21497
21511,-28666,-21241
21255,-28410,-21497
21255,-26874,-21241
20999,-26874,-20985
21511,-26362,-20473
22279,-25082,-20473
22535,-24826,-20729
22791,-24570,-20473
23303,-23546,-19961
23559,-23290,-20217
23559,-22778,-20729
23815,-21754,-20729
23815,-21242,-20985
24583,-19706,-21497
25351,-19450,-22265
25351,-19450,-22265
25351,-19450,-23033
25095,-19194,-24313
24839,-16378,-25593
25863,-15098,-27385
26887,-15610,-27897
27143,-15354,-28665
27399,-15354,-30201
26631,-16378,-31225
25607,-17914,-32249
25351,-17914,32519
25863,-16890,32007
27143,-16378,32007
28679,-15866,31751
28679,-16122,30727
27655,-18170,30215
26375,-20218,29959
25351,-20986,29447
25095,-20218,28679
25095,-20474,28167
25095,-21754,26887
25351,-22010,26119
25095,-22266,25863
24071,-22522,25607
24071,-21242,25863
25351,-20730,26375
26119,-21498,25863
24839,-23290,24071
23559,-23802,22535
23559,-22778,22279
24327,-22010,22791
24839,-21754,22791
25095,-21754,22791
24839,-21754,22791
25095,-22010,22279
25351,-22010,21767
25351,-22010,21511
25607,-21498,20743
25607,-21498,20743
25863,-20986,20487
26375,-20218,19975
27143,-19962,19719
26631,-20730,19719
26375,-20730,20487
26631,-20730,20231
26631,-19962,18951
26375,-19194,17927
26631,-18938,17927
26887,-19194,18183
27399,-19450,18695
27655,-18938,18695
27399,-17914,18439
27399,-16890,17927
28679,-16890,17927
28935,-16890,17671
28679,-16634,16903
28679,-15866,16903
29703,-15098,17159
30215,-15098,17159
30215,-14074,16903
29959,-13050,17415
29703,-13050,18695
30471,-13306,18951
30983,-12282,18951
30983,-11002,18695
30983,-11002,19463
31495,-9722,19207
32263,-9210,16647
32519,-7930,13063
-32761,-5882,11271
-30713,-4346,9479
-28409,-2554,6663
-27385,-1530,4615
-26873,-1018,2567
-26873,-1786,2823
-26617,-3322,2055
-27129,-4090,1031
-27897,-4090,519
-28153,-4090,1031
-28153,-4602,1287
-29177,-7162,1543
-31481,-9722,3335
30727,-11770,6151
28167,-13818,7687
28167,-14586,7943
28423,-15354,7687
28679,-15354,7943
28423,-15098,7175
28423,-15098,6663
28679,-15610,6919
28167,-15354,7175
27143,-15354,6151
26887,-15866,6407
26631,-16122,6407
26375,-18426,8199
25095,-20474,10759
22535,-20986,13319
22023,-20730,14087
23815,-7930,12039
29447,11270,3848
-25593,-25850,-14584
-12794,6,26633
-3322,9734,5897
-1018,-2298,-4600
-7931,-28922,-2296
-20475,4358,11784
-31482,-18682,25095
29190,-24058,30471
28934,-24570,31751
30726,-23034,-32761
31494,-21754,-27385
31238,-21498,-19193
31238,-20474,-12793
29190,-20986,-7161
26374,-22266,-1273
25094,-22010,3847
24839,-20730,5639
23815,-20218,5895
22023,-20218,6151
22023,-20474,6663
22535,-20218,6407
22791,-18682,5895
22791,-17914,5383
22279,-18938,5383
22279,-19194,5895
22535,-19194,5639
22023,-18938,5639
20999,-18938,5639
20999,-19194,6151
21255,-19194,6407
21255,-19450,6663
21255,-19450,6663
20487,-19450,6919
20231,-19706,6919
19975,-19706,6663
19975,-18938,7175
20231,-18938,7431
20743,-18938,7175
20999,-18682,7175
20743,-18426,7175
20231,-18170,7943
19719,-18170,8199
19719,-18682,8711
19719,-18682,8967
19719,-18682,9479
19975,-17402,9735
19975,-17402,9479
20231,-17402,9479
19975,-16634,9735
19975,-15866,10503
20231,-15866,11015
20487,-15866,11527
20487,-14842,12039
20487,-14074,12807
20487,-13306,12807
20487,-13306,12807
21255,-12538,12551
21511,-10490,12807
21255,-10490,13575
22023,-10490,14343
22023,-10490,14599
22279,-10490,14087
22535,-9210,13831
22279,-8442,13063
22279,-8442,12295
22535,-8698,12295
22791,-7930,11783
22535,-7418,11015
22535,-6650,9735
22279,-6650,8711
22535,-6906,7687
22791,-7162,6919
22535,-7162,5895
22023,-8442,5639
21255,-9210,5383
20743,-9978,5127
20999,-10234,5127
20231,-11002,4615
20487,-11770,4103
20487,-12026,3847
20487,-12282,3847
20231,-12538,3591
19719,-13562,3591
19207,-14330,3335
18951,-14074,3335
19207,-15098,3591
19207,-15610,4103
18695,-15610,4103
17927,-15354,3591
17927,-15610,3591
17927,-16122,3591
17927,-16890,3335
17671,-17402,3335
17415,-17402,3079
16647,-17402,3335
16391,-18170,3335
16647,-18170,3079
16647,-17914,3079
16647,-18170,3335
16903,-18426,3591
16135,-18426,3335
15879,-18426,3847
16135,-19194,4103
16135,-19450,4359
15111,-19706,4359
14087,-19962,4359
14343,-20218,4359
14599,-20986,4615
14599,-20986,4615
14599,-20986,4615
14599,-20986,4615
14343,-20218,4871
14343,-19962,4871
14343,-19962,4615
14343,-20474,4615
14343,-20474,4615
14343,-20218,4871
14343,-19962,4871
14343,-19962,4615
14087,-20218,4871
13831,-20986,5383
13831,-20474,5639
13831,-20218,5383
13575,-19706,6919
13575,-18426,8455
13575,-18682,9479
13575,-18426,9991
13319,-17146,10503
13831,-15866,10759
15111,-15866,9479
16391,-15610,6919
16391,-14842,4871
16391,-13306,3335
17927,-12538,2055
19463,-11258,-249
19462,-11258,-2297
19462,-11258,-2553
19206,-13306,-3065
19206,-14842,-4345
19206,-14842,-4601
18182,-15098,-3833
17414,-15354,-2809
16134,-17914,-1529
14598,-20730,263
11783,-23034,2311
9479,-24826,4871
8455,-26618,5895
8455,-27642,6151
7943,-28410,5895
7431,-28410,5895
6407,-29690,6663
6407,-30458,7175
5639,-30458,7431
5639,-30202,7175
5895,-30202,6663
5639,-30202,6663
5639,-32250,8455
4103,29446,12039
2055,27910,14855
519,28934,16391
775,-30458,16135
4871,-14586,12039
14087,10758,-1528
25606,-26618,-23288
-28410,-9978,19720
-22778,-11258,4360
-27130,31750,1800
27398,-506,10759
15110,-27386,23559
8198,28422,32007
6918,25862,-30713
8198,26118,-30713
8198,26886,-30713
8966,27398,-18937
8966,27654,-8697
7174,25862,-1785
4614,24326,4103
2823,24326,9735
2823,26118,13063
2055,26118,14343
263,24838,14087
-249,24581,14343
519,26118,14855
519,26374,15111
263,26374,15367
-249,26117,15111
7,26118,15111
7,26374,15111
-249,26373,15111
-249,26629,15623
-505,26373,16135
-1273,24837,16391
-1785,24837,17159
-2041,25349,17927
-1529,24325,18695
-1273,25093,18695
-1529,25349,18695
-1529,25349,18695
-2297,24837,19207
-2809,24837,19719
-2553,23813,20487
-2809,23557,20743
-2809,24069,21255
-2297,25349,21255
-2041,25349,21511
-2041,24837,22279
-2297,24581,22791
-2297,24581,23559
-2553,25093,24583
-2297,25605,24839
-2041,25605,24839
-1785,25349,25351
-1785,26373,26119
-2041,26629,26887
-1785,26629,27399
-1529,27653,28167
-761,28677,29191
-505,28677,30215
-1017,28677,30471
-1273,28677,30471
-1273,29189,30471
-505,30469,30983
-249,30469,30727
-249,30981,30983
-249,31493,31239
-249,32517,31495
263,-31994,31495
775,-31994,30983
1031,-31994,30471
1031,-31226,29447
1287,-31482,28679
1287,-31738,28167
-249,-31995,26887
-249,-32251,26375
519,-32762,25607
1031,32262,25095
519,32518,24583
-505,31237,24071
-249,30981,23815
-249,30469,23815
-249,29957,23815
-505,28165,24071
-1529,27397,24583
-2041,26885,24327
-2041,26373,23815
-2041,25605,23047
-2297,24325,22791
-2553,24325,22791
-3065,24069,23559
-3321,23813,23815
-3577,23301,24327
-3577,23045,24583
-3065,22789,24583
-3065,22533,24583
-3065,21509,24327
-3833,21253,24327
-3833,21253,24583
-4089,20229,24583
-3833,20485,24327
-4089,20997,24327
-5369,19973,24583
-5881,19973,24839
-5625,19973,24839
-5625,18949,25095
-5881,18949,25095
-5881,18437,25351
-6137,17925,25095
-6649,17925,25351
-7417,17157,25351
-7673,17157,25351
-7929,16901,24327
-8185,16901,24327
-8185,17157,24583
-6905,16901,24839
-6905,16389,25095
-7929,16645,26119
-8185,16645,26375
-8185,16645,26375
-7929,16645,25863
-7929,16645,25607
-7673,16389,25607
-8185,16389,26119
-8441,17157,26631
-8697,17413,26631
-8441,17413,27143
-8185,17413,27911
-7929,18181,28935
-8185,19717,29959
-8441,20229,29959
-8185,20229,30471
-6905,21253,29959
-6137,22277,29191
-5369,22789,26631
-4089,24069,24327
-2809,25861,23303
-1529,27397,21767
-505,28165,19719
7,28166,18695
263,26630,18951
-505,25605,18695
-1529,24837,18695
-1273,24837,18951
-505,24581,18951
-1017,24069,19207
-2553,20997,20487
-5625,17925,23047
-7929,15877,24583
-8441,14853,26631
-8697,14341,27655
-9209,13829,27399
-9465,12805,26887
-9465,12549,26631
-9721,13061,26887
-9209,13829,26887
-8953,13573,26631
-9209,13573,27399
-9209,13317,27655
-9209,12293,28679
-9977,10757,30471
-11513,8453,-32761
-13305,7429,-30201
-13305,11781,-29689
-13305,14597,-29433
-4345,-19963,24327
6663,7686,6152
18183,30982,-16632
25606,-26874,29960
25862,25862,20488
17926,-2554,24839
5894,32518,-28665
-2810,15365,-17913
-6138,11013,-13049
-5370,11269,-12537
-4090,12549,-10489
-3322,12549,-2809
-2810,12293,6151
-3577,11269,12551
-5625,8709,18439
-7673,7941,24327
-8697,8709,28679
-8697,9477,30215
-9465,8965,30727
-10489,8453,31495
-10489,8453,32519
-10489,9733,32263
-10489,10245,31751
-10489,10501,31751
-10233,9989,32007
-10233,9989,32519
-10233,9989,-32761
-9977,11013,-32761
-9721,11013,-32761
-9721,10757,32519
-9977,9989,-32761
-9721,9989,-32761
-9721,9989,-32249
-9721,11013,-31737
-9721,11269,-31737
-9977,10501,-31737
-9977,10501,-31481
-9977,10757,-30713
-9977,11269,-30713
-9977,11013,-30969
-8953,11013,-30969
-8953,11013,-30201
-9209,11781,-29945
-9209,11525,-30201
-8953,11525,-29945
-8953,11525,-28921
-8697,11525,-28921
-8697,11781,-29177
-8953,13061,-28665
-8953,12805,-28409
-8697,12805,-27641
-8697,13573,-27641
-8697,14341,-26873
-8697,14853,-26361
-8441,14597,-25849
-7673,15877,-25849
-7417,17157,-25593
-7673,17157,-25337
-7929,17157,-25081
-6905,17925,-24825
-6905,19461,-24825
-6905,19973,-25337
-6649,19973,-25337
-5881,20997,-25593
-5369,22533,-26617
-5113,23301,-27641
-5113,23301,-27897
-4857,23045,-28409
-4857,23557,-29177
-4857,24581,-29945
-4857,25093,-31225
-4089,25093,-32505
-3833,24581,32519
-3833,24581,31495
-3577,24837,30983
-3321,24325,31239
-3577,22789,31239
-3833,22789,30983
-3833,22277,29703
-4601,21765,28679
-4601,21253,28935
-4345,21509,29191
-4345,20741,28423
-4601,20741,27911
-4601,20229,27911
-4345,19461,28167
-4601,19461,28167
-4857,19461,27655
-4601,19717,27399
-4345,19461,26887
-4345,19205,27143
-4089,18949,26887
-4089,18437,27143
-4345,18181,27143
-4345,17925,27143
-4601,17669,27143
-4601,17925,27143
-4345,17925,26887
-4601,17669,27143
-4601,17925,26887
-4601,17925,26631
-4345,17669,26631
-4601,17925,26887
-4857,17669,26887
-4601,17669,26631
-4089,17925,26375
-3577,17925,26375
-3577,16901,26375
-4089,16645,26631
-3833,16901,26631
-4345,17157,26375
-4345,17669,26375
-4601,17669,26375
-4345,18181,26119
-3321,18693,26119
-3065,18949,25351
-3065,18949,25351
-3321,18693,25607
-3321,18181,25607
-3065,18437,25863
-2809,19717,26375
-3065,20997,26887
-2809,20741,27399
-2041,20741,28167
-1785,21253,28679
-2041,23045,30215
-2041,23813,29959
-2297,24325,29447
-761,25093,27655
519,25862,25351
1799,27398,23047
2823,28166,20743
3335,29190,19463
4871,30470,17671
5639,30726,16647
5383,29446,16647
5127,28166,16903
5127,27910,16391
4615,28166,16135
4103,27654,15879
3335,25606,16135
2311,23302,17927
-505,20997,20231
-2809,19205,22023
-4089,17413,23815
-4089,16389,24327
-3577,16389,24071
-3833,16389,23559
-3321,16389,23303
-2809,16133,23303
-2809,16133,24327
-3833,15109,24583
-4345,15365,24839
-4345,15877,24839
-3833,15877,24839
-3833,13573,26631
-5625,11525,29447
-6905,11013,32263
-7161,13573,-31993
-5625,23301,31495
-505,-23803,24583
8711,2822,9224
20487,29702,-13816
29446,-23802,30216
30726,32262,18952
25094,7942,19464
14086,-23802,30215
3846,19462,-23545
-762,14597,-17401
-762,14597,-16121
1286,15878,-14329
2822,15878,-8953
2822,15878,-249
1798,15622,6919
1287,13830,8455
-505,12293,19719
-2297,12549,24583
-3065,13573,26631
-4345,13317,26631
-4601,13061,26887
-4345,12805,27911
-4345,13829,27655
-4601,14085,26887
-4601,13573,26375
-4857,12293,27143
-5369,12293,27655
-5625,13829,27911
-5369,15109,27911
-4601,15109,28167
-3321,15109,28423
-3065,15365,28423
-3833,15621,28935
-3833,15109,29447
-3833,14853,29447
-4345,14853,29959
-4601,15109,30727
-4601,14853,30983
-3833,14853,30983
-3321,15109,31239
-3577,15365,31495
-3833,15109,31751
-4089,15109,32263
-4089,15109,32519
-3321,15365,-32761
-3321,15877,-32505
-3321,16133,-32505
-3065,16133,-32505
-3065,16389,-31993
-3321,16901,-31993
-3321,16901,-31225
-3065,16901,-30201
-3065,17669,-30201
-3065,18181,-30457
-3321,18693,-30201
-2809,19717,-29689
-2041,20485,-28921
-1785,20997,-28665
-1785,21253,-28153
-1529,21509,-27641
-1785,22533,-26873
-1273,23557,-26617
-1017,24325,-26873
7,25094,-27641
775,25350,-27641
775,25606,-27897
519,26374,-28409
519,26886,-29177
519,27654,-29945
1031,28422,-30713
1543,29446,-31481
1799,29190,-31737
1799,28934,-32761
1543,28934,31495
1287,28934,31495
1287,28422,31239
1287,27654,30983
1543,26630,29959
1287,26630,29447
1287,26374,29447
1287,26374,29191
1031,25350,28935
519,24326,28935
7,23558,28679
263,23302,28679
7,23046,28679
-249,22277,28935
-249,22021,28423
7,22022,28167
263,22278,28423
263,22278,28935
7,21510,28935
-249,20229,28679
-249,20741,28679
-505,20997,28935
-761,20997,28935
-249,20997,28679
263,21254,28679
263,20742,28935
-249,20485,29191
-505,20229,28935
-249,20229,29191
-249,19461,30215
-761,19461,30215
-1017,19205,30215
-1017,19461,29959
-761,19205,29959
-761,18949,30215
-1017,18949,30471
-1017,19205,30471
-505,18949,30471
-249,18437,30727
-249,18437,30727
-505,18949,29959
-505,19205,30215
-505,19461,30727
-249,18949,30727
-249,18949,30983
-505,18949,30983
-249,18949,30983
7,19718,31239
-249,20485,31239
7,20742,30983
263,20742,31239
775,22022,-32761
775,22534,-31737
519,22534,-30969
775,23046,-30713
1543,24582,-30201
2823,25862,-29689
2823,26886,-30713
3079,26886,-32505
4103,27398,31239
5383,29446,29703
6919,31494,28423
7943,32262,25607
9735,-32506,23303
10759,-32250,23047
10247,32518,22791
9223,30726,22023
8967,29702,21511
8711,29958,22279
8711,30214,23303
8455,29446,24327
6919,26374,25351
4103,23302,27143
1543,20998,29191
519,19974,31495
263,19206,31495
-249,17669,31495
-505,17669,31751
-761,18437,31495
-505,18437,31239
-249,18693,31495
-249,18693,31239
-249,18693,31751
-249,18437,32007
-505,17669,31751
-1785,15109,-32249
-3321,12549,-28409
-4089,12293,-24313
-4345,16133,-24057
-3065,27141,-27641
3079,-17402,29703
14855,10502,12808
19207,19206,5896
-31225,-24058,-30200
-30970,28678,26120
27398,1030,30984
16646,-30202,-21753
6662,17670,-12025
2054,13574,-7673
3334,13574,-6393
6406,15110,-5113
6406,15622,775
5639,15366,9991
5383,15622,17671
4615,14086,23559
2567,14086,28423
519,14342,32263
7,14854,-30969
-505,14597,-29689
-761,14597,-29689
-1529,14853,-28665
-1785,15109,-28409
-1017,15621,-28665
7,16390,-28665
7,16390,-28665
-249,16133,-28921
-249,15877,-28921
-505,15877,-28665
-505,16133,-28153
-505,16389,-27385
7,16390,-26617
-249,15877,-26873
-249,16389,-26873
-249,16389,-26617
-249,16389,-26617
-505,16133,-26361
-505,15877,-26105
-249,15877,-25849
7,16390,-25337
263,16646,-25081
519,16390,-25337
519,16134,-25337
775,16646,-24825
1031,17414,-24569
1287,17670,-24057
1287,17670,-23289
1799,18694,-23033
1543,19462,-23033
2055,20230,-22265
2567,20230,-22009
3079,21254,-22009
3335,20998,-21753
3079,21766,-21497
3847,23302,-20985
4103,23558,-20217
5127,23814,-19705
4871,24838,-19961
5127,25862,-19705
5895,27398,-18937
6919,27654,-18425
7175,28166,-18681
7175,28934,-18937
7431,29958,-18937
7943,30214,-18937
7943,31750,-19961
8967,-32506,-21241
9223,-32250,-21497
9735,-32250,-21753
9735,-31994,-22265
9735,-31226,-23801
9479,-31226,-24825
9735,-30970,-25593
9735,-30970,-25849
9479,-31738,-27641
10247,-31994,-28409
11015,-32250,-28665
10759,32518,-28409
9991,32006,-28921
9735,30726,-29177
9735,30982,-29177
9735,30214,-28921
9735,29446,-29433
9991,29446,-30201
9991,29702,-30969
9735,28934,-30969
9479,28166,-30969
9735,28166,-30713
9223,28166,-30969
9223,27654,-31225
9479,27654,-30969
9735,27398,-31225
9479,27398,-31737
9735,27910,-31481
9991,27654,-31481
9735,27654,-31737
9223,26886,-31993
9479,26886,-31993
9479,27398,-31737
9735,27654,-31993
9735,27654,-32761
9991,27910,32263
9991,27142,32263
9735,27142,-32505
9735,27142,-32249
9735,26630,-32249
9735,26630,-32505
9479,26886,-32761
10247,27910,-32761
10247,28166,32263
10503,28166,32263
10247,27910,32263
10247,27398,32519
10247,27654,-32761
10503,28422,-32761
11015,29958,32519
11271,31494,32263
12039,31494,-32505
12551,32518,-30713
13575,-30970,-30201
14343,-29178,-30201
15623,-26618,-31993
18183,-24314,30727
19975,-21754,27143
21255,-19450,23815
22279,-19194,21255
22791,-19450,19975
22791,-19450,19463
22535,-19450,19719
22535,-19962,20231
22791,-20730,20487
21767,-23802,21767
19207,-26618,23815
15879,-29946,24839
13575,32518,26631
12807,30726,28423
13063,30726,28167
13063,30470,27655
13063,30470,27143
12807,30214,27399
12807,29702,27911
13319,30214,27911
13063,30214,27399
13063,30726,26375
13575,31494,26119
13575,31750,27143
13831,31494,28167
13575,29702,28679
12551,27142,31239
10503,25606,-31481
9735,27654,-29689
10503,-29690,-31225
15623,-11258,26887
17927,-4346,24327
-28409,-23802,-9464
-17402,-8954,-30968
-13818,-16634,20744
-19194,24326,20744
-30458,-8442,-32761
23558,-31738,-19705
17670,26118,-13561
17926,25350,-11513
18950,25862,-10233
19718,27654,-5881
20230,28422,1031
20231,28934,8711
19207,27654,15111
17415,26886,20487
15367,27398,24327
14855,28422,27655
14855,28422,28935
13063,27910,28935
12295,29190,28935
13575,30214,29191
14343,31494,28935
14343,31238,28167
14343,30726,28167
14343,30982,28423
14343,30982,28935
14599,30726,29191
14343,31238,28935
14343,31494,28935
14599,31494,28935
14343,31494,29191
13831,31238,29447
13319,30726,29191
13575,30982,29191
13575,30726,29191
13575,31750,29447
13575,31750,29447
13831,32006,29447
13575,32006,29703
13575,32006,29703
14343,-32506,29447
14599,-31994,29959
14599,-31994,30215
14343,-31994,30727
14343,-31738,30983
14343,-30970,30983
14343,-29946,31495
15111,-30202,31751
15111,-30458,31495
14855,-30458,31495
14343,-29434,31239
14599,-28154,-32761
15367,-28154,-31737
15623,-27898,-31737
15623,-27130,-31737
15623,-25594,-31993
16391,-24570,-31225
17671,-24058,-30713
17671,-23802,-30713
17927,-22522,-30969
17927,-22010,-30969
17927,-22010,-30969
18695,-20986,-31225
18951,-19962,-31737
18951,-19450,-32249
18695,-19450,32519
19207,-18938,31495
19463,-18170,30983
19719,-17658,30471
19719,-17914,29447
19719,-17658,28167
19463,-17658,26887
19463,-17914,26631
19719,-19194,25863
19463,-20218,25095
18695,-20218,25095
17927,-20986,25095
17671,-21498,24839
17415,-22522,24327
17415,-23290,23815
17671,-23546,23559
17671,-24058,23047
17159,-24570,22791
16903,-25082,22791
16903,-25594,22791
16647,-25594,23047
16647,-26106,23815
16135,-26618,23815
16135,-26362,23047
16391,-26362,22279
16391,-27130,22279
15879,-27386,22535
15879,-27386,22791
16135,-27642,22535
16135,-27642,23047
15367,-27642,23047
15367,-27898,23047
15623,-27898,22535
15367,-28666,22023
15111,-28410,22279
15111,-28410,22279
15367,-28410,22279
15367,-28410,22791
14599,-28666,22791
14599,-28922,22535
14855,-28666,22791
15623,-28666,23047
15879,-28666,22535
15367,-28666,22279
14599,-28922,22279
14599,-28666,22791
15111,-28410,22791
15623,-27898,22535
15623,-27642,22535
15111,-27642,22535
14855,-27642,22535
14855,-27898,22535
14855,-28154,22535
14343,-28410,22535
14087,-28666,22791
14087,-28154,22791
14599,-27898,22791
14855,-28154,23047
14855,-28154,22535
14343,-27898,22279
14343,-27898,22279
14599,-28666,22535
14343,-28410,22791
14087,-28410,22791
14343,-27898,23047
14599,-28154,23047
14599,-28154,23303
13575,-28410,23303
13575,-28666,23815
13575,-27642,24327
13831,-25850,25351
14855,-25850,26631
15367,-25338,27143
15367,-24058,27655
15623,-23034,27911
15623,-22522,27399
17159,-22010,25863
17671,-22010,23559
18439,-19706,21767
19463,-17658,19719
21767,-15866,17415
23559,-15098,14855
23815,-14842,13831
23559,-15610,13831
23047,-17914,13831
23047,-18938,13063
22279,-18938,13063
21767,-18170,13831
21767,-18426,14599
20231,-21242,15367
17927,-24058,16391
15111,-26618,18951
13575,-28410,20999
13063,-29178,21767
12295,-30714,21255
12039,-31226,20999
12295,-30714,20999
12295,-30458,21255
12039,-30458,20999
11271,-31226,20999
11015,-31226,21255
11527,-30970,21255
11271,-31994,22023
10503,30726,24839
8455,27910,28167
7431,28422,30471
7175,-31738,30727
9735,-19450,27655
15623,1030,17928
26887,28934,-2552
30982,-27130,-9720
-18170,-6906,21512
-18170,-22266,13832
-27642,13830,19208
26118,-16378,-32249
16902,32518,-20985
13830,27910,-15865
14086,26886,-14841
15878,28422,-14073
16390,29446,-7417
16134,29702,1287
15111,29958,7943
13575,28934,13063
12039,28166,18951
11271,28934,23815
10247,29702,25351
8711,29190,25095
7943,29190,26119
8199,29702,27399
8711,30726,27399
8455,32006,26631
8711,32006,26375
8711,30726,26631
8711,30726,26887
8711,30982,27399
8199,30726,27655
7687,30470,28423
7431,30470,28935
7431,30726,28935
7943,30982,28679
8199,30470,29191
7175,30214,29191
7431,30214,29447
7687,30470,30215
7687,30470,31239
7175,29958,31495
6151,29190,31751
6407,29702,31751
7175,29958,31751
7431,30726,32519
6919,30470,-32761
6151,30470,-32761
6151,30726,-32761
6151,30726,-32249
6407,30982,-30969
6151,31494,-30713
5895,31750,-31225
5895,32262,-31481
6151,32262,-30201
6151,32518,-28665
6151,32518,-28921
6407,-32250,-28665
6407,-31482,-28153
6663,-30458,-26873
7175,-29946,-26873
7687,-29690,-27129
7687,-29178,-27129
7687,-28410,-26873
7687,-27642,-25849
7943,-27386,-26105
8711,-27130,-26361
8711,-25594,-26105
9223,-24570,-25849
9479,-24570,-26617
9479,-24570,-27641
9735,-24058,-28153
9735,-23034,-28409
9991,-23034,-28665
10247,-23034,-29689
10247,-23290,-30713
10503,-22778,-31481
10503,-22522,-31737
9991,-23546,-31737
9991,-25082,32263
9991,-25594,32263
9479,-25594,32519
8711,-26874,32519
8455,-28410,32007
8199,-28666,31239
8199,-28666,31495
8199,-28922,31751
8199,-29178,31495
7431,-30458,31239
7175,-30970,31751
7175,-31226,31751
7175,-31226,32007
6663,-31482,32007
6663,-32250,32007
6151,32262,31239
5895,32518,30983
5895,32518,30983
6151,32518,31495
5895,31750,32007
6151,30982,31751
6151,30982,31751
5639,32006,31751
5383,31750,32007
5383,31238,32263
5383,30470,32263
4871,30470,32519
4615,30470,-32505
4359,29958,-32505
4615,29190,-32505
4359,28934,-32505
4359,30214,-32249
4103,30726,-32249
4103,30470,-32505
4871,29702,-31993
5127,29702,-31737
4615,29446,-31481
4359,29702,-31481
4359,30470,-31481
5383,30726,-31225
5895,30982,-31481
5639,30982,-31481
5383,30726,-31481
5383,30726,-31225
5639,30982,-31225
5639,30982,-30969
5127,30726,-30969
4871,30214,-30713
4871,29958,-31225
4871,30726,-31225
4871,31750,-30201
5639,32518,-28665
6151,-32762,-28921
6151,-32762,-27385
6151,-31226,-26617
6151,-30202,-25593
7175,-29690,-25593
7943,-28410,-27129
7943,-27898,-28665
9479,-27130,-29945
11015,-25850,-32505
12039,-24826,31495
13063,-22522,29959
14599,-21498,29447
16135,-21498,29191
15879,-22522,29703
15879,-23034,32007
15879,-22778,-28409
15879,-23546,-23289
14343,-24826,-17657
10503,-26874,-9721
3591,31750,2055
-5368,24581,14087
-14328,19717,25607
-23800,16389,-29945
32520,16389,-23033
26888,18693,-23801
25608,19461,-25849
21256,4101,27911
18952,-12795,25606
18696,-28667,26118
19976,26373,27398
22536,28677,26886
26632,-28411,21254
31496,-24059,14598
-29176,-20219,9478
-25848,-15867,5638
-23544,-12539,4614
-22008,-11003,6406
-21240,-9467,8198
-19704,-6651,8198
-17656,-1531,5894
-15352,4101,-2041
-11513,8709,-13561
-7673,14341,-24057
-4345,18949,-32505
-2297,20741,27143
-1017,20997,23047
-249,22021,21767
1031,24326,21767
2311,26118,22535
3847,26886,22535
4615,27398,22535
6663,30726,24839
7175,32006,25863
7687,32006,26119
9223,32262,25607
9735,-32250,25095
9991,-31482,24327
10503,-30714,23815
11015,-30458,23815
11271,-30202,23559
11527,-29434,23559
12039,-28922,22279
12295,-27386,21255
13319,-26874,20743
14087,-26362,19975
14087,-25850,18951
14855,-24570,18439
15623,-22778,17927
16903,-21498,16903
18183,-20218,15111
19463,-17914,13575
21255,-16634,12551
22535,-15354,11271
23559,-14074,9991
25095,-12282,9223
25607,-11258,8967
27655,-9210,7175
28679,-7418,6151
29703,-5882,5383
30727,-4602,4615
31751,-3578,3847
32263,-3066,3591
-32505,-2042,3591
-31737,-1274,3847
-31737,-1018,5127
-31993,-1274,6151
-31737,-1274,6151
-32249,-1018,7943
32263,-762,9991
30727,-1786,11271
30215,-3322,12551
29447,-4602,14087
27143,-6138,16647
25095,-7418,19207
24327,-9722,20487
22791,-12026,21767
20743,-13306,24071
18439,-15610,26631
17159,-18426,28167
16135,-20730,29959
15367,-21242,30983
11527,-25082,-31225
10247,-27386,-30201
9991,-29178,-29689
8455,-30714,-28409
6919,-32250,-27385
6151,31494,-26361
5383,30214,-25337
5127,29446,-25081
4359,29446,-23801
3335,28678,-23289
3079,27398,-23545
3079,26630,-23801
2055,26630,-23801
1543,26374,-24057
1543,25862,-24313
1543,25350,-24313
1287,25094,-23545
1287,25094,-23545
775,25350,-24057
519,24838,-24313
519,24582,-24825
775,24838,-24569
1031,24582,-24569
1287,24582,-24313
519,24070,-24313
-761,22789,-24569
-505,22533,-24569
-505,23045,-24569
-761,23045,-24569
-761,22021,-24313
-1017,21253,-24313
-1273,21253,-24313
-1273,21765,-24569
-1017,21765,-24057
-1017,21765,-23289
-1273,21509,-23033
-1017,21509,-23801
-1017,21765,-24057
-1017,22021,-24057
-1273,21253,-23289
-1273,20741,-23033
-1017,20741,-22777
-1785,20485,-22521
-2297,19717,-22521
-2297,19717,-22777
-2041,19973,-22777
-2041,19717,-22521
-2553,19717,-22265
-2809,19717,-22009
-3065,18949,-22009
-3065,18949,-21753
-3321,19205,-21753
-2809,19205,-22009
-2297,19205,-21753
-2297,19973,-21753
-2041,19973,-21753
-2041,19717,-20729
-1785,18949,-20729
-2041,19205,-20473
-1785,19973,-20473
-2297,20229,-20729
-2553,20741,-19961
-1785,21253,-18681
-1017,21253,-16889
-1017,22277,-16121
-1017,22789,-15609
-761,23045,-15097
-505,24325,-15097
263,25350,-17145
1543,25862,-20729
2823,27398,-23033
3847,28934,-24057
4871,30726,-26105
6663,31750,-28665
7943,32006,-28921
7943,30726,-28665
7431,29446,-28921
7175,28166,-30457
7175,28422,-30713
6919,28422,-29945
5895,27142,-29177
4615,25350,-28153
2311,23046,-26361
-249,19717,-23801
-2553,17413,-21497
-2553,17413,-21241
-2809,17157,-21241
-3065,15877,-21241
-3065,15621,-21753
-2553,15365,-21753
-2809,15621,-21497
-3065,15621,-21753
-3321,15365,-21497
-3577,15109,-20729
-3065,14597,-20473
-3065,12549,-19193
-4857,9221,-15609
-7417,7941,-12025
-8441,11269,-11257
-8185,13317,-11257
-249,-23803,-21753
10503,3846,26632
23303,30214,2568
-31737,-24570,-18680
-29690,30726,-29176
28422,3846,-26360
16646,-28154,-13305
6150,15878,7
1031,8966,6151
1287,8198,7175
2823,8966,8199
3847,9990,13575
4103,9990,22023
3079,9990,29447
1031,8966,-29945
-1017,7941,-23289
-1529,8965,-18425
-2041,9733,-16889
-3833,9477,-16889
-4601,9733,-16377
-4345,11013,-15609
-3065,12037,-15353
-3065,12037,-15865
-3065,12037,-15609
-3065,12037,-15353
-2809,12037,-14073
-2809,12293,-14329
-3321,12293,-14329
-3321,12549,-14585
-3065,12549,-14073
-2809,12037,-13561
-3321,12293,-13305
-3321,11781,-13305
-3321,12037,-13561
-3577,11781,-13305
-3833,11525,-12537
-3833,12037,-12537
-3577,13317,-12537
-3321,13061,-11769
-3065,12805,-11257
-2809,13317,-11001
-2553,13573,-10745
-2553,14085,-10745
-2553,14597,-10745
-2041,14597,-10489
-1785,14853,-9977
-1785,15109,-9977
-2041,15109,-9465
-1785,15109,-9465
-1529,15365,-8441
-2041,15365,-7417
-2297,15109,-7673
-2041,15877,-7673
-1785,17157,-6649
-1273,17925,-6137
-505,17925,-5369
-505,18437,-5369
-505,18949,-4345
-505,19717,-3321
-249,19973,-3321
263,20230,-3833
519,20486,-4089
775,22022,-4089
1543,23046,-3833
2055,22790,-3577
2055,23046,-4089
2311,23814,-4601
2823,24838,-4857
3335,25606,-5369
3079,25350,-6905
3847,25606,-8185
3591,25862,-8441
4103,25862,-8441
4103,25862,-9209
3847,25350,-10233
4103,25350,-11001
4359,25094,-11001
4615,24582,-11001
4871,24070,-11001
4871,23558,-11513
4615,23046,-12281
4615,23046,-12281
4615,22022,-12281
5127,21766,-13049
4871,21254,-13305
4871,20742,-12793
4871,20486,-12537
4871,20486,-12793
5639,20486,-12793
5383,19974,-12793
5639,19462,-12537
5127,19718,-12537
5383,19718,-12537
5127,19462,-12281
4871,17926,-12537
5895,17670,-12537
6151,18182,-12537
5895,18950,-12281
5639,18694,-12025
6151,18182,-12025
6407,18182,-11769
6407,18438,-11769
5895,18182,-11513
5895,18438,-11769
5895,17926,-12025
6151,17926,-12537
6407,18694,-12281
6919,18694,-11257
6919,18950,-11001
6919,18694,-11001
7175,18694,-11001
7687,18694,-10745
7943,19462,-10745
7943,19718,-10489
8199,19718,-10233
8711,19462,-9721
8455,19718,-9721
8455,19718,-9721
9479,20230,-9721
9735,20742,-9465
9479,21510,-9977
9479,21510,-9977
9735,21510,-10233
10247,21766,-9209
10247,21510,-8441
10759,23302,-8441
11783,25094,-8185
12551,25350,-7161
12807,25094,-5113
12551,26630,-4601
13063,27910,-4857
14087,28934,-4857
14855,28678,-5881
14855,28678,-8185
16135,30726,-11769
18439,-32250,-13305
20231,-31226,-15097
21255,-30458,-17401
22023,-29690,-18681
22279,-29946,-19449
22279,-31994,-19449
21767,32518,-19705
