10248,-24056,6919
9736,-24312,7175
9736,-24312,7175
9992,-24312,7175
9736,-24056,7431
9480,-23032,8967
8968,-22776,10759
8968,-22776,11015
8712,-22520,8967
8456,-22264,6407
8712,-22008,4103
8968,-21752,2055
8712,-21496,519
8968,-21752,263
9480,-21752,263
9480,-21496,263
8456,-23288,519
6920,-26616,2311
6408,-28408,5127
6152,-28664,6663
5896,-29944,7175
5896,-30712,7431
6408,-30200,7431
6664,-28920,7175
6664,-28408,5895
6408,-29176,5895
6152,-30200,6919
5896,-30456,6919
5896,-29176,6919
5896,-28664,6919
6152,-28408,6151
6408,-28408,5895
6408,-28408,5895
6664,-28920,6407
6664,-31224,7943
6408,32520,9735
6408,-30456,10759
6408,-24312,10247
8456,-12024,6151
11784,5384,-1528
16135,29192,-14584
20231,-3064,-32248
23815,24584,13065
24583,27144,-503
20230,3080,1289
12295,25352,19464
4871,-21240,-19961
519,16904,519
-760,10503,10247
-760,12295,10759
-760,15367,9479
-760,18439,6919
-248,18439,3079
8,15880,2055
8,15624,3847
1288,17672,5383
3592,19976,6663
4360,20488,6919
3592,23048,8967
3080,24072,9991
3080,25608,10247
3336,26120,9991
3336,26120,9735
2824,26376,10503
2312,26632,11015
2312,27400,11015
2312,27656,10759
2312,27144,10503
2056,27400,10759
2056,27656,11527
1800,27656,11783
2056,28168,11271
1800,28168,11015
2056,27912,11271
2312,27912,11527
2056,27656,11527
1544,27400,11783
1800,27400,12039
2312,27912,11527
2312,28680,11271
2312,28680,11271
2568,28680,11271
2312,28936,11015
2056,29448,11015
2056,29704,11271
2312,29704,11783
2568,30216,12039
2568,30984,11527
2568,31240,11783
2312,31752,11527
2312,32008,11527
2056,32008,11527
2312,32520,11783
2568,32520,11783
2568,32520,11783
2568,-32760,11783
2824,-32248,11527
2824,-32248,11527
3080,-32248,11015
2824,-31992,11015
2568,-30968,11271
2568,-30200,10247
2824,-30200,9223
2824,-29688,8455
3080,-28152,8455
3592,-27640,7943
3592,-27384,7431
3592,-26872,7175
3592,-26104,6919
3848,-26104,6663
4104,-26104,6151
4104,-25848,5383
4104,-25592,5383
4360,-25080,5383
4616,-24824,5383
4872,-24568,5127
5128,-24568,5127
4872,-25336,4615
4616,-25336,4359
4616,-24824,4103
4872,-24824,4103
4616,-25080,4103
4872,-25336,4103
4872,-25848,3591
4616,-25848,3335
4616,-25848,3591
4616,-26104,4359
4872,-26104,4103
4872,-25848,4359
4872,-25336,4359
5128,-25336,4103
5384,-25336,4103
5384,-26104,4103
4872,-26616,4103
4616,-26616,4871
4872,-26360,5127
4872,-25848,5127
4360,-25592,4615
4360,-25848,4615
4360,-26104,4615
4616,-25848,4615
4616,-25848,4871
4616,-26104,5383
4616,-25848,5383
5128,-25336,5127
5640,-24824,5639
5640,-24824,5639
5640,-24824,5639
5896,-24568,5383
6408,-24568,5127
6408,-24824,5127
6152,-25080,5127
6408,-25336,5127
5896,-25592,4615
5896,-25848,4359
6152,-25592,4359
6152,-25336,4615
6152,-25080,4871
6408,-25592,4871
6152,-26104,5127
5896,-26104,5383
6152,-26104,5127
6408,-26104,5127
6408,-26360,4871
6408,-26104,4871
6664,-26360,4871
6664,-26360,5127
6664,-26616,4871
6664,-26360,4871
6152,-26104,4615
6408,-26360,4615
6408,-26104,4871
6408,-25080,4871
6920,-23032,5127
6920,-20984,4871
7688,-18168,4871
9480,-14584,3591
12040,-10744,1287
15624,-5368,-2297
18695,-1016,-5625
20743,-760,-7673
21767,-5624,-6905
21767,-8440,-5881
19463,27912,11271
16392,5640,25095
11528,-23032,-24570
6408,12040,-4858
776,-13304,16133
-6135,-29433,-31995
-13559,31495,-22011
-18679,-30201,-19451
-22007,-23545,-19963
-23543,-14073,-25339
-24311,-3321,32005
-24055,8199,22022
-23799,20487,13062
-22775,31751,3846
-20215,-21497,-6138
-18168,-11513,-15098
-17400,-5881,-19450
-16632,-1785,-20986
-15352,1287,-21753
-14328,5639,-22521
-12536,12295,-23801
-10488,19463,-26617
-8696,26375,32519
-7928,31751,24583
-7928,-32761,22279
-6392,-29177,13575
-4600,-26105,8711
-2296,-22265,3079
-248,-19705,-1529
2055,-17144,-4601
4359,-13816,-8441
5383,-10744,-13561
6151,-8952,-17145
6407,-7416,-17657
7175,-5368,-18937
7687,-3064,-21497
8199,-1528,-23801
8711,-248,-24313
9479,1288,-25336
10247,3848,-28152
10759,5128,-30712
11015,6152,-30968
11527,7432,-30968
12295,9224,32520
12807,11016,29704
13319,11528,28424
13575,12552,28168
14599,14088,26632
14855,15112,24584
14855,14856,24072
15367,15368,23816
16135,15624,23816
16391,16392,22792
16391,16392,22024
17159,16392,22280
17671,16392,22536
17671,15368,22536
17415,14344,22536
17671,13320,23816
17671,12040,25608
17671,11016,26632
17671,9224,27656
17671,7432,29960
17671,5896,31752
16647,3336,-31992
15879,1288,-30968
15367,-504,-28665
15367,-2552,-26105
14343,-4088,-24569
13831,-6392,-23033
13319,-8440,-20985
13063,-10232,-18681
12551,-11512,-16889
12039,-13560,-15609
11783,-14328,-14841
11015,-16888,-11257
10759,-17656,-9977
9991,-18936,-9465
9735,-20216,-8185
9479,-20984,-6393
9223,-21496,-5625
8199,-22520,-5113
8199,-23032,-4089
7943,-23032,-2553
7943,-23032,-1017
8199,-23288,-761
8455,-23544,-761
7943,-23800,7
7176,-23800,1031
7432,-24056,1031
7432,-24056,775
7176,-23800,1543
7432,-23288,2055
7432,-23288,2055
7432,-23288,1799
7176,-23032,1799
6920,-22776,1799
6664,-22776,1031
6920,-22776,1031
7688,-22776,1031
7432,-22520,775
7176,-22520,1031
7176,-22776,1287
7176,-22520,1287
7432,-21752,775
7432,-21752,775
7176,-21752,775
7432,-22008,775
7944,-22008,1031
7944,-22008,1287
7688,-22520,775
7944,-23800,519
8200,-23800,775
7688,-23288,1031
6920,-23544,1031
6664,-24056,1031
6920,-24568,1031
6664,-25080,1287
6408,-25336,1543
6408,-25336,2055
6664,-25336,2311
6920,-25080,2055
6920,-25592,1799
6408,-26360,1799
6152,-26104,2311
5896,-26104,3335
5896,-26616,3335
6152,-27128,3335
6152,-26872,3079
6152,-26872,3079
6152,-27128,3335
5896,-27128,3591
6152,-27640,3591
5640,-28408,3591
5128,-28408,4359
5384,-28408,4359
5384,-28152,4615
5640,-27896,4359
5384,-28152,4103
5384,-28408,4103
5128,-28920,4103
5128,-29176,4359
5128,-29176,4615
5128,-28664,4871
5384,-28664,4871
5128,-28920,4871
5128,-28920,4615
5640,-28920,4615
5640,-28920,4615
5640,-28920,4615
5384,-29176,5127
5128,-29432,5383
5384,-28920,5639
5640,-27896,5383
5384,-27640,5127
5384,-25848,5127
5896,-23288,6407
5896,-21496,7431
5640,-20216,7431
4616,-19448,7431
3848,-18680,7687
4104,-18168,7431
4360,-18424,6407
4360,-18680,4615
4616,-19448,4103
4872,-21240,3079
3336,-23544,1031
1800,-26104,-249
1287,-28408,7
1544,-30968,1031
2056,32264,1799
2056,32264,1799
2824,32520,2823
3080,32008,4103
3336,31240,4103
3592,31496,5127
3336,31496,5895
3592,30984,6407
3848,30728,6151
3848,30984,6151
4104,30984,6151
3592,30728,6151
3592,30472,6663
3592,30984,6919
3592,30728,7175
3592,30472,6919
3592,30728,6663
3592,31240,6663
3592,31752,6663
3336,31496,7175
3336,31752,6919
3592,31752,6919
3336,31752,7175
3336,31496,7431
3336,29704,8199
3336,28936,9735
3848,32520,11271
3848,-25336,9735
5384,-12536,4103
6664,-7928,1543
15624,31240,-18936
20487,-1272,27656
23559,21000,7945
23815,15368,-2295
18950,-16632,4872
11015,2056,27912
2823,24584,-11769
-1785,5895,5895
-1784,3591,13063
-1528,6151,12807
-1528,9735,10503
-1528,13319,6919
-1272,13319,4871
-248,10503,5127
520,11272,6663
1544,14600,7687
2312,16392,8455
3336,17928,10247
3592,19208,11527
2824,20232,11271
2312,21768,10503
2824,22024,9991
2824,22280,10503
2568,23048,10759
2568,23816,11015
1800,24072,11527
1288,23560,12039
1288,23304,12807
1032,23560,13319
1288,24072,13319
1544,24328,13319
1032,23816,13575
520,23816,13319
520,24072,13319
520,24328,13063
1032,24072,12551
1032,24328,12295
776,24584,12295
776,24840,11783
1032,24584,11783
1288,24584,12039
776,24840,12295
264,25608,12039
776,26120,12039
1288,26632,12551
2312,27656,12551
2568,28424,12295
2056,28680,12039
1800,29448,12295
1800,29704,12295
2056,29960,12551
1800,29960,12807
1544,30216,13063
1800,30984,12807
1800,32008,12295
2056,32008,12551
2312,31496,12551
1800,31496,12295
1800,31496,12551
1800,32008,12807
2056,-32504,12295
3080,-31480,11271
3080,-31224,9991
3336,-31224,9479
3080,-30968,9735
3336,-29432,9479
3336,-29176,9223
3336,-29432,8455
3336,-28664,7943
3848,-27896,7943
4360,-26872,7687
4360,-26872,7431
4104,-27384,6663
4104,-27384,6151
3848,-27128,6407
4104,-27128,6919
4104,-27384,6663
4360,-27128,6407
4616,-26872,5895
4872,-26872,5639
4616,-27128,5639
4872,-27384,5383
5128,-27384,5383
4872,-27640,5639
4616,-27896,5639
4616,-27896,5383
4872,-27896,5383
5128,-27896,5383
4872,-27896,5895
4616,-28152,5895
3848,-28664,6151
3848,-28920,6663
3592,-28408,6919
3848,-28408,6919
4360,-28408,6663
4616,-28408,6407
4616,-28152,6407
4616,-28664,6407
4104,-29176,6663
4104,-28920,7175
4104,-28664,7431
3848,-28664,7175
4360,-28664,7175
4360,-28408,7431
4104,-27896,7175
4360,-27896,7175
4616,-28408,7175
4616,-28408,7175
4360,-28664,6919
4616,-28664,6663
5128,-27896,6663
5384,-27896,7175
5128,-27896,7431
5128,-27640,7431
5384,-27640,7175
5384,-28152,7175
5128,-28664,7687
5128,-28664,7687
5384,-28664,7687
5640,-28664,7687
5640,-27896,7175
5640,-27896,7175
5896,-27896,7175
6152,-27384,7431
6408,-26616,7687
7432,-23032,8711
7688,-21496,8967
7944,-20216,8967
7944,-18680,8967
7176,-17144,8711
6920,-15608,7687
7176,-14328,6407
9480,-11512,5639
12552,-8440,4871
15880,-5624,2823
18440,-2296,519
20744,-2040,519
21256,-6648,3847
19464,-18424,9479
15880,28424,18951
11784,9224,30727
7432,-14584,-20986
2568,22536,-5114
-3832,-4345,12037
-10231,-25081,28677
-14839,32007,-24315
-17911,-31737,-19195
-21239,-25593,-19963
-23799,-16633,-25339
-24055,-12537,-27899
-24567,4871,25094
-24823,15367,17670
-24823,26119,8710
-23287,-26873,-2042
-19704,-16121,-11514
-18168,-9209,-17146
-17912,-4345,-20474
-17144,-249,-21754
-15096,3591,-22009
-12792,9479,-23801
-11768,16135,-27385
-10232,23815,32263
-7672,30471,25351
-6136,-31737,18951
-6136,-30201,13575
-6136,-28153,8199
-4088,-24569,4359
-760,-21753,519
1544,-19448,-3577
2311,-15864,-8185
3847,-12536,-13049
6407,-10488,-16377
7175,-9208,-18425
6919,-7672,-19705
6407,-5880,-20729
7175,-2808,-24057
7943,-2040,-25081
8967,-248,-26361
9735,2824,-28920
10503,5128,-30968
11271,6152,-32248
11783,6920,32008
12039,9224,30216
12551,11016,28168
13575,11528,26888
14343,12296,26376
14599,13832,24840
14855,15368,23560
15879,15624,23048
16391,15624,22792
17159,16392,21768
17415,17160,21256
17927,17416,20744
18695,16136,20744
18951,15624,21000
19207,15624,21000
19719,15368,21256
19463,13576,23304
19719,11272,25096
19463,10760,24840
18951,9224,27656
18695,7688,30472
18439,5128,32264
18183,3080,-32504
17415,1800,-30968
16391,8,-28408
15623,-2552,-26105
15367,-5368,-24825
14599,-6392,-23801
14087,-7672,-21241
13831,-10232,-18681
13319,-12280,-17145
12295,-13304,-16377
11783,-14072,-14329
11527,-16120,-11769
10759,-18424,-10745
10247,-18936,-10489
9735,-18936,-8953
9223,-20472,-6905
9223,-21752,-5625
8199,-22008,-5369
7943,-21752,-4601
7687,-22520,-2553
7687,-23288,-1273
7175,-23544,-1273
6919,-23544,-761
6919,-23544,-249
6663,-23288,1287
6664,-23800,1031
6664,-24568,1031
6408,-24312,1031
6152,-24312,1799
5640,-24312,2567
5640,-24312,2311
5640,-24056,2311
5384,-23032,2567
6664,-21752,2567
7432,-21752,2567
7176,-22264,2567
6664,-22776,2311
6152,-22776,1799
5896,-22776,1543
6152,-23032,1031
6152,-23032,519
6664,-22008,7
6664,-22264,-761
6663,-22776,-761
6663,-23288,-249
5895,-23544,-249
5383,-23544,263
5640,-23544,519
5640,-23800,519
5384,-24312,263
5640,-24568,519
5896,-24824,1287
5896,-24824,1799
5384,-25336,2311
4872,-26104,2823
4616,-26104,3079
5896,-25848,3335
6152,-26104,3591
6152,-26872,3335
5640,-26872,3079
5128,-26872,3591
5128,-27384,4615
5128,-28152,4871
5128,-28408,4871
4872,-28408,5127
4616,-28408,5127
5128,-28408,4871
5384,-28408,5127
5384,-28408,5127
4872,-28664,5383
4360,-28408,6151
4104,-28920,6407
4616,-29432,6663
4872,-29176,6919
4872,-29176,6407
4872,-29176,6407
4872,-29176,6663
4872,-29176,6407
4360,-29176,7431
4360,-29432,7943
4104,-29432,7943
3848,-29432,7687
4104,-28920,7943
4872,-27896,8199
4872,-26616,8455
5128,-24568,9223
5128,-22264,10247
5128,-19960,11271
5384,-19192,11015
5128,-19192,10759
4104,-19192,9735
4360,-19192,8199
4616,-19448,6407
4360,-19960,5639
4616,-21240,5383
4872,-21496,5383
4360,-21752,5639
3336,-24824,8455
2568,-27128,10759
2312,-29688,12295
2568,-30712,13575
2568,-30968,14855
2056,-30456,14599
1544,-30456,13063
1544,-30200,10759
1800,-30968,8455
2312,-31736,7431
2312,-31480,7175
2056,-31992,6407
2312,-31992,6151
3336,32264,6663
3336,31496,6919
3080,31496,7431
3336,31496,7431
3848,30472,7687
3848,30472,8199
3336,30728,8199
3080,30728,8199
2824,31240,8199
3080,31240,7943
3592,30984,7687
3592,30984,7943
3080,30984,8455
3336,31240,8455
3592,31752,7687
3848,32008,7175
3848,30472,8199
3848,29192,10759
4104,32008,12295
4616,-25592,10503
6152,-12280,6151
10760,5640,-3064
16391,30472,-17400
21255,-504,28680
24583,23048,8969
25351,17416,-759
20486,-15352,6664
11783,2824,27912
3335,24840,-10745
-1273,3335,8967
-1016,1799,15367
-760,4615,14855
-504,8199,12807
-760,13063,10503
-248,13063,7943
776,10504,8199
776,10760,8711
2056,14600,9223
3080,14600,10247
3848,16904,12039
3848,19208,12551
3080,20744,12551
3080,22024,12039
3336,22792,11783
3080,24072,12039
3336,24840,11783
3592,24840,11527
2568,24584,11271
1544,23816,11015
1800,23816,12039
1800,24840,13063
1544,24840,14087
1544,25096,14599
1800,25096,14599
2056,25352,14855
2056,25864,14855
2312,25864,14087
2312,25608,13319
2056,25096,13319
1800,25352,13575
1800,25608,13831
2056,25608,13575
2312,26120,13575
2312,26376,14087
2312,27144,14599
2824,27400,14855
3080,27656,14343
3080,29192,14343
3336,29192,14855
2824,29192,15367
2568,29448,15367
2312,29960,15111
2824,29960,15111
3336,29960,14855
3592,30216,14599
3336,31240,15367
3336,31496,15879
3336,31496,15623
3336,31496,15367
3336,31752,15623
3592,32264,15367
3336,32264,14855
3336,32520,14343
4104,-32504,14599
4872,-31480,14087
4616,-30200,13575
4616,-30200,13319
4872,-29176,12551
5384,-28664,12039
5896,-28408,11527
5896,-28152,11015
6152,-28152,10247
6152,-28152,10247
5896,-27128,9735
5896,-26360,9223
6152,-26360,8711
6152,-26616,8455
5896,-26360,7943
5896,-25848,7687
5896,-26104,7687
6408,-26360,7687
6664,-26360,7687
6152,-26360,7431
5640,-27128,7687
5896,-27896,8455
6664,-28152,8199
6664,-27384,7943
6408,-27640,7687
6152,-27640,7687
5896,-27640,8455
6152,-27640,8967
6152,-27640,9223
5896,-27640,9479
5896,-27128,9223
5896,-26360,9223
5640,-26872,8967
6152,-27640,8967
6408,-27896,9479
6152,-28408,9991
6408,-28664,10247
6152,-28408,10247
5896,-27896,9991
6152,-27128,9735
6664,-27384,9735
6664,-27640,9991
6920,-27384,9735
6920,-27384,9735
6152,-27384,10503
6152,-27384,10759
6152,-27896,10503
6152,-27640,10247
6664,-27896,10759
6920,-27640,11271
7176,-26616,11015
7432,-26616,11015
7944,-26616,11271
8200,-25848,11527
8200,-25592,11015
7944,-26360,10759
7688,-27128,10247
7688,-26872,10247
7688,-26872,10247
7688,-26360,9991
7432,-25336,10247
7944,-23800,10247
9224,-21752,11271
9736,-19704,12807
8968,-18168,12551
8200,-17144,12295
7944,-16376,11783
7432,-16120,10503
7688,-15864,8967
9224,-14072,7943
11272,-11512,6663
13320,-7928,4615
15112,-3576,2567
17160,1288,1288
19976,5384,776
21768,6920,520
22280,5640,2312
22280,-1528,7431
22280,-4600,9735
17672,-30712,25863
12296,4360,-25593
6152,32008,-6650
8,-1272,14085
-6391,-24825,31493
-12023,-31993,-23035
-16375,-27385,-19195
-18423,-17657,-23035
-19447,-5369,-31995
-20727,8199,23046
-21239,19463,13062
-20983,29447,6150
-19703,-27385,-1274
-17912,-19193,-9210
-15864,-12793,-14842
-14328,-8441,-17658
-13048,-5625,-18938
-12280,-2553,-20218
-11512,1287,-20473
-11256,7175,-20985
-9720,14855,-23545
-7928,21767,-28665
-6904,26887,30983
-6136,30215,25607
-5624,31239,24583
-4088,-30457,15367
-2552,-27641,10759
-1272,-25337,7431
264,-21752,4615
2824,-17912,263
4616,-14840,-4857
5639,-13304,-7929
6151,-11768,-9721
6663,-8952,-12281
6919,-6392,-15097
7431,-5112,-17401
8199,-3832,-17657
8967,-1272,-18681
9735,1288,-20984
9991,2568,-22520
9735,3848,-23032
10247,5640,-24312
11015,7688,-27128
12039,8968,-29176
11783,9224,-29688
12295,9992,-29944
13063,11272,-31224
13575,12040,-32248
13831,13320,32520
14343,13832,-32760
15367,15112,30216
15623,15624,28936
15879,15880,29192
16391,15624,29704
16647,15368,29960
16647,14856,29704
16903,13064,30728
16903,12808,32264
16647,12808,-32760
16647,11016,-32248
16391,8968,-30712
16135,6920,-28664
15879,4872,-27128
15623,3592,-25848
15623,1032,-23800
14599,-1272,-21241
13831,-2552,-19449
13575,-4344,-18425
13831,-6136,-16377
13831,-8184,-14073
13319,-9976,-12281
12807,-11256,-10745
12039,-13304,-9209
12295,-14840,-6905
12295,-15352,-6137
11015,-17656,-4601
10503,-18168,-4089
10247,-19192,-2809
9991,-20216,-1529
9479,-20472,-1017
9223,-20472,-761
9223,-20472,775
9736,-20472,2311
9480,-20984,2823
9480,-21752,2823
9736,-21752,3335
9224,-22008,4103
8712,-22008,4359
8200,-22776,4615
8200,-23032,4871
7944,-23288,5895
7944,-23032,6151
8200,-22008,5383
8200,-21240,4871
8200,-20984,5127
8200,-20984,5383
8456,-20984,5383
8712,-20728,5639
8456,-20472,5895
8456,-20728,6151
8712,-20728,6407
8968,-20472,5639
8968,-20472,4871
8968,-20728,5127
9480,-20984,5895
9736,-21240,6407
9736,-21496,6151
9480,-21496,5639
9480,-22008,5639
9736,-22008,5895
9480,-22008,6151
9736,-22264,6151
9736,-22008,6151
9736,-22008,6407
9736,-22008,6407
9480,-22008,6407
9736,-22264,6151
9992,-22264,6407
9992,-22008,6663
10248,-22520,6663
10248,-23288,6919
9480,-24312,7175
8712,-24824,7431
8968,-25080,7431
9224,-25080,8199
9224,-24568,8711
9224,-24056,8711
9480,-24312,8199
9480,-24824,8455
9480,-25080,8455
9224,-25080,8455
8968,-25336,8199
8968,-25592,8199
8712,-25592,8455
8712,-24824,8199
8968,-25080,7943
9224,-25336,8455
8968,-25336,8455
8456,-25592,8199
8712,-26104,8199
8968,-26360,8711
9224,-26104,8967
8712,-25848,8711
8712,-25848,8455
8968,-25592,8199
8968,-25336,8199
8968,-25592,8711
8712,-25336,9223
8968,-24824,8967
9224,-24312,8711
9480,-21240,9479
9480,-19192,10503
9480,-18168,10759
9224,-16632,10759
8200,-15096,11015
8200,-15096,10503
8712,-15096,9223
8968,-14840,7431
9224,-15352,6151
9224,-16376,5383
9480,-17912,5383
8968,-20216,7175
7688,-23544,10759
6408,-27640,13831
6408,-30456,15367
6152,-30456,15879
5896,-29688,15367
5384,-28664,12807
5384,-27896,9223
5896,-27640,7431
6408,-28152,7175
6408,-28920,7943
6152,-29176,7687
6408,-29432,7431
6920,-29432,7431
7432,-29432,8199
7176,-29688,8455
7432,-30456,8199
7688,-30456,8455
7688,-30200,8967
7688,-30200,9223
7432,-29688,8967
7176,-29944,8967
7688,-29944,8711
8200,-29432,8967
8200,-29176,8967
7944,-28920,8199
7688,-28920,8199
7688,-29432,8199
7944,-29688,8967
7944,-30712,10247
7944,-31480,11527
7944,-28408,12295
9224,-20472,11271
11784,-6904,6663
14856,12040,-2296
19207,-27640,-16120
24071,6920,30985
27143,29704,11529
27911,-32504,5641
21511,-7416,7944
13319,9480,29704
6663,30728,-8953
2567,10248,9479
1800,7432,16135
1544,9224,15367
1544,13832,13319
1800,17416,9735
1800,17416,6663
1288,15368,6151
1800,15112,6919
4104,17928,7687
5896,20232,8199
5896,22280,9735
5640,24072,11271
6152,25352,11271
6408,26120,10503
6408,26632,10247
5896,26376,10247
5128,26376,10247
4872,27144,10503
4872,27400,10759
4616,27144,11271
4616,27656,11527
4872,28168,11783
5128,28424,11271
4872,28680,11015
4616,27912,11271
4616,27656,11271
4616,27656,11271
4360,27656,11271
4616,27912,11527
4872,27656,11271
4872,28168,11271
4616,28936,11015
4616,28936,10759
4616,28936,10503
4360,29448,11015
4360,29704,11271
4616,29960,11015
4616,29960,11271
4616,29960,11527
4360,30472,11271
4104,31496,11527
4360,31752,12039
4616,31496,12551
4616,31240,12295
4104,31496,12295
3336,32008,12551
3336,32008,12295
3336,32008,12295
3592,32264,12551
3336,32520,12551
3080,32264,12807
2824,32520,12551
2824,-32504,12551
3336,-31736,12551
3336,-31736,11783
3336,-31224,11015
3592,-30456,10503
3848,-29688,10759
4616,-29176,9991
4872,-28664,9223
4616,-27384,8967
4616,-25848,8967
5128,-25592,8455
5640,-25592,7431
5640,-25592,6663
5640,-25592,6663
5640,-24824,6407
5384,-23800,6919
5896,-24056,7175
6408,-24056,6919
6664,-23288,6919
6664,-23032,6919
6664,-23032,6663
6664,-23544,6663
6408,-24056,5895
6152,-24056,5895
6408,-24056,5895
6664,-24568,6151
6664,-24824,6407
6920,-25080,6663
6920,-25336,6151
6664,-25336,5895
6408,-25336,5639
6152,-25336,6151
6152,-25336,6151
6152,-25336,6407
5896,-25336,6663
5640,-25336,6407
5896,-25080,6407
6152,-24824,6663
5640,-25080,6407
5640,-25080,6151
5640,-25080,6407
5384,-25080,6407
6152,-25080,6663
6152,-25080,6919
6152,-24568,6663
6408,-24568,6663
6408,-24312,6663
6152,-24568,6663
6664,-24312,6663
6920,-24056,6919
7176,-24056,6663
7176,-24056,5895
7176,-24056,5639
7688,-23800,5383
8456,-23544,5383
8200,-23288,5383
8200,-23288,5383
8712,-23288,5383
8968,-23544,5895
8968,-23288,5895
8712,-23288,5639
8712,-23544,5383
8968,-23800,5127
8968,-24056,5383
8712,-24056,5383
8200,-23800,5127
8200,-23544,5383
8200,-23032,6151
8456,-21752,6151
8968,-20728,6407
8968,-17400,7431
8968,-15608,7687
7944,-14072,7431
7176,-11256,7175
7944,-8184,6407
10248,-5368,4359
13320,-3576,2055
15880,264,776
17416,3336,-504
18695,1288,-1528
19463,-5624,-249
18439,-20216,6407
15624,24840,16903
11528,3336,27911
7432,-23288,-24570
3080,14088,-7418
-2296,-9465,11781
-7927,-27897,29957
-12791,30983,-24571
-16119,-32249,-20475
-18679,-24825,-20731
-21751,-13817,-26363
-23287,-3833,30469
-23799,5639,22022
-24055,8967,20486
-24311,28935,6150
-22263,-24569,-4858
-19192,-15097,-14586
-17144,-8185,-19450
-16888,-2041,-21754
-16120,1799,-23289
-13816,4871,-24569
-11512,10503,-25849
-10744,18695,-28921
-9720,26375,30471
-7416,31495,23047
-5880,-31481,17671
-5880,-28665,13575
-5880,-25849,8199
-3064,-23801,2311
264,-21240,-1529
1799,-17656,-4345
2823,-13816,-8953
4359,-11256,-14585
6407,-9976,-17913
6663,-8184,-18169
6407,-5624,-19705
6919,-3832,-22521
7943,-2808,-24569
8455,-2296,-24569
8967,2056,-26616
9479,4360,-28408
10247,5384,-31224
11271,6408,-32248
11271,8456,-32248
11271,10504,31496
12039,11016,28424
13063,12040,27400
13319,13832,27144
13575,15368,25608
14087,15880,23304
15623,16136,22280
15879,16904,22536
15879,17928,22280
16135,17928,21256
17671,17416,20232
18183,17416,20232
18183,17160,20488
18439,16904,21000
18439,15368,22280
18439,13576,23304
18695,13576,24840
19207,12552,25864
18695,9992,26888
18439,8456,27656
18183,6664,30984
17927,5384,32520
17415,3080,-30968
16903,264,-28920
16135,-1528,-26873
15367,-2552,-24825
15111,-4344,-22777
14343,-7160,-20985
14087,-8696,-19961
13063,-9976,-18169
12295,-11512,-16121
11783,-14072,-14329
11271,-15352,-12793
10503,-16120,-11257
10503,-17144,-10233
10247,-18936,-8953
9991,-19960,-7673
9223,-20216,-6649
8967,-20216,-5625
9223,-21496,-4601
8711,-22520,-3577
8199,-22264,-2297
7687,-22520,-2041
7687,-22520,-1273
7431,-22520,-761
7431,-22776,-249
7431,-22264,-249
7687,-22008,263
7688,-22008,775
7176,-21752,1287
6920,-21752,1287
6920,-21752,1287
6664,-21496,1287
6408,-20984,1543
7176,-20984,1799
7176,-20984,1799
6920,-20728,1543
6664,-20216,1543
7432,-19960,2055
7688,-19960,1799
7688,-19960,1031
7688,-20216,775
7944,-20216,1031
7688,-20216,775
7432,-20472,775
7432,-20984,775
7688,-20984,775
7176,-20984,775
6664,-21240,1031
6920,-21496,1287
7432,-21240,1287
7432,-21496,1287
7432,-22008,1543
7688,-22520,1543
7176,-23032,2055
7176,-22776,2055
7432,-22776,2567
7432,-23288,2567
7432,-23544,2567
7432,-23544,2567
7688,-23800,2567
7432,-23800,2823
7176,-24568,3079
6664,-25080,3847
6664,-25080,3591
6664,-25336,3847
6664,-25080,4103
6920,-24824,4103
6664,-25080,3591
6408,-25336,3591
6408,-25592,3847
6408,-25848,4359
5896,-26104,4615
5384,-26104,4615
5128,-26616,4871
5128,-26872,5127
5384,-26616,4871
5640,-26104,4871
5384,-26104,4871
5640,-26360,4871
5640,-26872,4871
5384,-26616,5127
5640,-25336,5127
5640,-23800,5639
5896,-22008,6663
5640,-19960,7175
5384,-17912,7175
5384,-16888,7431
4872,-16632,7175
4872,-16632,6663
4616,-16632,5127
4872,-17144,3335
5640,-17912,2567
5640,-18936,2823
4616,-19192,3335
3336,-20728,3847
3336,-23544,5895
3336,-26360,7943
2824,-27896,9735
2312,-28408,10247
2312,-28920,11271
2056,-28920,11271
1800,-29176,9735
2056,-29432,7175
2056,-29176,5383
2312,-29176,5127
2312,-30200,4615
2312,-30712,3847
2824,-30456,3335
3336,-30968,3847
3336,-31480,4103
3336,-32760,4615
3336,-32760,5127
3080,-32248,5383
3080,-31992,5639
3080,-31992,5383
2824,-32248,4871
3080,-31992,4359
3080,-31736,4615
3080,-31736,5127
2824,-32760,5383
3080,-32760,5127
3336,-31992,5383
3336,-31736,5383
3336,-31736,5127
3080,30984,6663
3080,30472,8711
3080,-29432,8967
4616,-20728,6919
7432,-6904,1543
11528,12296,-8696
16647,-25848,-24056
21511,7688,21257
24839,26120,2569
24071,13576,-3319
17158,-21240,6152
8199,-4344,29703
1287,20744,-9721
-1785,5383,7175
-2040,6151,10759
-2040,9479,9223
-1784,13319,6663
-1528,15367,3847
-1528,13831,2055
-760,12039,2311
264,13576,4359
1544,15624,6407
2056,17416,7175
1800,19976,7431
1800,19976,8455
2056,22024,9735
2312,23560,9479
2568,24328,9223
2312,24072,9479
2312,24584,9479
2312,25608,9223
1032,25864,9479
520,25864,9735
520,25864,9735
1032,26120,10247
1032,26632,10759
1032,26376,11271
776,25608,11271
264,25608,11015
520,25352,10759
520,25864,10247
776,26632,9991
1032,26632,9991
776,26376,9991
776,26888,9991
776,27144,10759
1032,27400,11271
1288,27912,11271
1288,28424,10759
1544,28936,10503
2312,29704,11015
2312,30216,11271
2056,30216,11271
2056,29960,11015
1032,30728,11271
776,31240,11783
1288,31496,11527
2056,31752,11271
2056,32520,11271
1800,-32760,11271
1800,32520,11783
2056,-32504,12039
1800,-32248,11783
1800,-31480,11527
1800,-30968,11271
1800,-30712,11015
2312,-29688,10759
2824,-29432,9735
2824,-29432,9223
2568,-28408,8967
3080,-27896,9223
3336,-27384,8967
3080,-26616,7687
3080,-26616,7431
3848,-26360,7431
4616,-25592,7687
4872,-25080,7431
4616,-24824,6407
4616,-24824,5895
4616,-24056,5895
4872,-24056,6151
5384,-24056,6407
5384,-23800,5639
5640,-23544,4871
5640,-24056,4615
5640,-24568,4615
5384,-25336,4359
5384,-25592,4359
5384,-25336,4615
5384,-25336,4615
5640,-25336,4359
5896,-25592,4103
5896,-25592,3847
5640,-25848,4103
5640,-25336,4103
5384,-25336,4615
5128,-25848,5383
4872,-25848,5639
5128,-25848,5383
5640,-25592,5383
5640,-25848,5383
5384,-25592,5639
4616,-25592,5383
4872,-26104,5639
5128,-26104,6407
4872,-25848,6407
4360,-25336,6407
4360,-25336,6407
4872,-25592,6151
5384,-25080,6407
5384,-24312,6407
5384,-24568,6663
5128,-24824,6407
5128,-25080,6151
5640,-25080,6407
5896,-24056,6151
5896,-23800,5639
5896,-24056,5639
6152,-24568,5895
6664,-23800,6151
6920,-22776,7175
6664,-20216,7687
7176,-17656,7943
7176,-16888,8199
7432,-16632,8455
6152,-14840,8711
5128,-14584,8967
5384,-14584,7687
5896,-15352,5895
6152,-15864,4871
6408,-16120,3847
6408,-17144,3079
6664,-17656,2823
6408,-19960,3847
5384,-21752,6407
5640,-22008,8455
6920,-21752,9735
8968,-18168,10247
11528,-13304,11015
14088,-9464,9991
15880,-6648,6663
17672,-6136,4103
18696,-8184,3591
18952,-15864,7431
17416,-30968,14087
14088,16904,24327
9736,-6904,-27386
5384,29192,-8698
-504,775,11014
-3063,-7673,16645
-13815,-29689,-24059
-17655,-28409,-18171
-20727,-22777,-19963
-23287,-14073,-26875
-25079,-3065,30213
-24823,8711,22790
-24823,19719,14854
-24311,29959,4358
-22263,-24569,-5882
-19448,-13561,-14586
-18168,-6393,-20218
-17144,-2297,-23546
-15864,775,-24825
-14840,4615,-24569
-12792,10759,-24569
-10744,17159,-26873
-9208,24839,-32505
-7416,32263,25607
-6648,-29689,18439
-5880,-28409,13575
-5112,-26105,8199
-2808,-23033,2311
-1016,-19961,-1785
263,-17912,-5881
775,-17144,-7417
3847,-10744,-14841
5895,-7672,-18425
6407,-6136,-19961
6919,-4600,-21497
7687,-1784,-24057
8711,520,-26104
9223,2056,-26872
9479,3592,-28408
10247,5896,-30968
11271,8456,31752
11527,9480,30984
11783,9992,29960
12295,12040,27912
13319,14344,25608
13831,15624,25352
14343,15880,25096
14343,16904,23304
15879,18696,21512
16647,18952,20744
16391,18696,21000
16903,18952,20232
17927,19464,18440
18951,19720,18440
18951,19720,19208
18951,18952,19208
19207,17160,19464
19719,17160,20232
19719,15624,22024
18951,14344,23560
18183,12296,24584
18439,10504,26120
18695,9736,28168
18439,7688,29960
17415,4872,30984
16903,3336,32520
17159,2056,-30456
16391,8,-28408
15623,-2296,-27129
14855,-3832,-25337
14343,-5624,-23545
13831,-7160,-21241
13319,-9720,-19705
12551,-11512,-18425
12039,-12280,-16889
11783,-13560,-14585
10759,-15864,-13561
10247,-16888,-12793
10503,-17400,-11257
10247,-18424,-9465
9479,-19192,-9209
8711,-20216,-8441
8967,-20216,-7161
8967,-20472,-5113
8711,-20984,-3833
7943,-22264,-3065
7943,-22520,-2553
8199,-21496,-1273
8199,-21240,-1017
7943,-21496,-1017
7431,-22008,-1017
6919,-22520,-761
6663,-22520,-249
6663,-22264,7
6408,-22264,519
6152,-22264,263
5896,-22520,263
5640,-22520,263
5896,-22520,7
5896,-22520,7
5384,-22776,263
5384,-22008,7
5384,-21496,7
6152,-21752,7
6664,-21752,-249
6407,-21752,-249
6407,-21752,7
6408,-22264,7
6664,-22264,-249
6663,-22264,-249
6663,-22264,7
7176,-22264,263
7176,-22264,519
7176,-22520,775
7176,-22776,775
7176,-23032,1031
7176,-23288,775
6920,-23544,775
6664,-23800,1031
6664,-24312,1543
6664,-24312,1543
6664,-24312,1543
6664,-24568,1287
6408,-25080,1287
6408,-25080,2055
6152,-25336,2311
6664,-25592,2311
6664,-25848,2567
6664,-25592,2567
6664,-25848,2567
6664,-25848,2567
5896,-25592,2823
5896,-25592,2567
5640,-26360,3847
5640,-26104,4359
5896,-24824,4359
6152,-23544,4359
6408,-21496,5639
6408,-19192,6663
5896,-17656,6663
5128,-16888,6407
4104,-16888,6407
3848,-16632,5639
4360,-16888,4615
5384,-16632,2567
5640,-16888,2055
5384,-18424,2311
4872,-19192,2823
4104,-20472,3335
3080,-23544,5383
2824,-26872,8199
3080,-29176,10247
3080,-29176,11271
2312,-28408,11527
2056,-28408,11783
2056,-28408,11271
2056,-28920,7175
2312,-29432,4871
2312,-29688,4871
2568,-30456,4615
2568,-30712,3335
2312,-30968,3079
2824,-31736,3591
3848,-31992,4103
3848,-31992,4103
3592,-32760,4103
3336,32264,4615
3336,32264,5127
3336,32264,5127
3336,32264,4615
2824,-32760,4103
2568,-32248,3847
2824,-32504,4359
3080,-32248,4359
3336,-32504,4615
2824,-32760,4615
2056,-32504,4615
2312,-32248,4615
3080,31496,5639
3592,30728,7175
3336,30984,8199
3848,-23800,7175
6408,-11768,2823
10504,5896,-6136
15623,30472,-19448
20743,-2808,27912
24583,20488,7945
25607,16904,-4087
19974,-14328,2312
10759,4616,23816
3335,26376,-15353
-1273,5383,4103
-1784,4615,10759
-1528,7175,10503
-1272,10759,7687
-1016,14599,4103
-1016,14855,1287
-248,13063,1287
1032,13320,3079
2312,16136,4103
3080,18184,5127
3336,20232,6151
3592,21512,7943
3848,23048,8455
3848,24328,7687
4104,24328,7175
3336,24328,7175
2568,24328,7431
2056,24584,7431
1800,25864,7687
2056,25864,8455
2312,25864,8967
1800,26376,9735
1800,26632,9991
1800,26888,10247
1800,26632,9991
2056,25864,9991
2056,25864,10247
2312,26376,10247
2312,26376,10503
2568,26376,10503
2312,26632,10247
2312,26888,10247
2056,27400,10503
2568,27656,10247
2312,27912,11015
2312,27912,11527
2312,27912,11783
2312,28680,11015
2568,29192,11015
3080,29448,11015
3080,29704,11527
3336,29704,11783
3336,29960,12039
3336,29960,12039
3336,30984,12551
3592,31496,12551
3592,32008,12551
3592,32008,12551
3336,32520,12295
3080,-32504,12039
3336,-32504,12295
3592,-32248,12039
3336,-31992,11783
3080,-31480,12039
3848,-31224,11783
4616,-30456,10247
4616,-29944,9479
4616,-29944,9223
4872,-29944,9479
4872,-29176,9735
5384,-28408,8967
5896,-28152,8199
6152,-27896,8199
6408,-27128,8199
6408,-26872,7431
6152,-26872,7175
6152,-26616,6919
6920,-26616,6919
6664,-26616,7175
6920,-26872,7175
7176,-26616,7175
7944,-26104,6919
7688,-26360,6663
7944,-26616,6663
8200,-27384,6919
8200,-27896,6919
7944,-27896,6919
8200,-28152,7175
7688,-28408,7175
7432,-28408,6919
7432,-28152,6919
7176,-28152,7431
7432,-28152,7943
7944,-28152,7943
7944,-27896,7943
7944,-27896,7943
8200,-28152,8455
8456,-28408,8967
8456,-28152,8711
7944,-28920,8455
7432,-28920,8455
7432,-28664,8711
7176,-28920,8711
7688,-28152,8711
8200,-28152,9479
7944,-28152,9735
7944,-28152,9479
7944,-28152,9479
8200,-27896,9223
8200,-27640,9223
7944,-27896,9479
8200,-27896,9991
8456,-27640,9991
8456,-27640,10247
8456,-27384,9991
8968,-26872,9991
9224,-26360,9735
8968,-25592,9735
8968,-25336,9991
9224,-25592,10247
10504,-25848,9991
10760,-24824,9991
10248,-23288,10759
10248,-21496,11527
10248,-21240,11783
9992,-18680,12039
9992,-17400,12039
8712,-17144,12295
7688,-17144,11527
8456,-17144,10247
9224,-15864,8455
10760,-13816,6919
12808,-11768,6151
14856,-8184,5639
17160,-5880,4871
19464,-3576,4615
21256,-1016,5383
22536,-1784,7175
23560,-5112,11271
23304,-13048,16903
20232,-26360,23815
15368,19976,-32249
10760,-8952,-18170
4872,22280,518
-1783,-7417,19461
-8695,-27129,-29435
-13815,-32505,-19451
-16375,-27641,-17403
-18423,-19449,-22011
-19703,-15609,-24571
-20983,3847,26630
-20727,14343,18694
-20727,24839,10758
-19191,-29945,1798
-16887,-19449,-7162
-14840,-12537,-13562
-13304,-7929,-17914
-12536,-3833,-20218
-12024,-761,-20986
-11000,3591,-20985
-9208,9479,-22009
-7416,16391,-25081
-6136,24583,-30713
-5368,29703,27911
-4600,32007,22023
-3576,-30969,17415
-2552,-28921,12807
-760,-26361,8199
1544,-23544,5639
3592,-20472,2055
5128,-15864,-3321
6919,-12280,-8697
8455,-11000,-12025
9223,-9720,-13561
9223,-8440,-14585
9735,-4856,-17401
9991,-3576,-18681
10503,-1528,-19449
10759,1032,-20984
11015,3592,-23288
11783,4616,-25080
12807,5128,-25848
13063,6920,-27128
13319,8968,-29176
13831,9736,-30968
14855,10760,-31224
15367,12040,-31992
15367,13832,30984
15879,15112,29192
16903,15368,29192
17415,16392,28936
17671,17928,28168
17927,18184,27144
18695,17416,27400
18951,16904,28168
18951,16136,28680
19207,15368,28680
19463,15368,28936
19719,14088,29448
20231,14344,29960
20487,12040,32264
19975,8712,-31736
17927,6664,-30456
17671,6664,-28920
18439,4872,-27128
18439,1800,-25592
18183,8,-23800
17159,-1784,-21497
16647,-3832,-19193
16647,-5880,-16889
15879,-8440,-15609
15367,-9720,-14073
15367,-10488,-12025
15111,-12280,-10745
15111,-14328,-9721
14343,-15096,-8697
13575,-16376,-6905
12807,-18424,-5113
12551,-20216,-3577
12295,-20216,-2553
11527,-20216,-1529
11271,-20984,-505
11271,-22264,263
10760,-22776,263
10248,-22520,519
9992,-22008,2055
10248,-22008,2823
9992,-22008,3335
9736,-22008,3591
9480,-22264,4103
9736,-22264,4359
9480,-21752,4615
9480,-21240,5383
9736,-21240,5895
9992,-21752,6407
9992,-22264,6663
9480,-22520,6407
9736,-21752,6151
9992,-20984,5639
9992,-20984,5895
9992,-21240,5895
10248,-20984,6151
10760,-21240,6151
10760,-20984,5895
9992,-20984,5895
9992,-21240,6151
10248,-21496,6151
10504,-20728,5895
10504,-20984,6407
10504,-21496,6663
10760,-22008,7175
11016,-22008,7431
11272,-22264,7175
11272,-22264,7175
11272,-21752,7431
11528,-22008,7431
11272,-22264,7431
11272,-21496,7175
12808,-20472,7431
15880,-16376,7431
17928,-12024,7431
18952,-8184,6151
21768,-2296,3335
25608,3336,1544
27656,5640,1544
27400,2824,3080
26120,-8952,8199
24328,-25336,17159
20744,12552,31751
14600,-24824,-14586
8712,6152,7174
3337,-20984,29189
-3063,31239,-20219
-9975,-32505,-14587
-12023,-31225,-14331
-16119,-13561,-22267
-16631,-249,-30971
-17143,11527,25094
-17143,23559,15366
-15863,-31993,6918
-12791,-21497,-506
-11000,-11769,-8442
-11000,-6393,-14586
-9208,-2553,-17658
-7416,263,-18425
-6904,3591,-18169
-7160,9223,-19449
-6136,16391,-22265
-3832,24583,-25337
-2552,31239,-30457
-2552,-30713,28935
-2296,-26617,24071
-760,-21241,19719
1800,-16376,15111
3336,-11768,10503
4616,-7928,5383
6920,-4856,1031
9480,-2552,-3065
10503,-1784,-8185
10759,-1528,-9977
11527,-248,-12025
11527,8,-12024
10503,8,-11512
8967,-504,-9977
7431,-1784,-8441
7175,-2552,-8441
8967,-2040,-11513
10503,-1272,-16121
10503,520,-18936
10503,1544,-20216
10503,1544,-21496
11015,3080,-23032
11783,4360,-23544
12295,4616,-23800
12295,4872,-24312
13319,5896,-25848
14087,7688,-25848
13831,9224,-25848
14087,9224,-26104
14343,10248,-27128
14087,11272,-28408
14343,11016,-28408
14855,11016,-28664
14855,11272,-28408
14855,11528,-28152
15367,11784,-27640
15623,10760,-26872
15367,8968,-25848
15367,7688,-24568
15367,6408,-23032
15367,4360,-21240
15111,2312,-19960
15111,1032,-18168
14855,-760,-16889
14087,-2552,-15097
14087,-4600,-13561
14087,-6904,-12793
13831,-8184,-11513
13575,-9464,-9465
13319,-11768,-7673
12807,-13560,-6393
12551,-14584,-4857
11783,-15864,-3065
11783,-17400,-1785
11783,-18424,-761
11271,-18936,7
11016,-19192,1031
11016,-19960,2055
11272,-20728,2823
11272,-20984,3335
10504,-21752,4871
10504,-22264,5639
10248,-22520,5895
9992,-22520,5895
9992,-22520,6151
10504,-22520,6407
10760,-22520,6663
11016,-22520,6407
10504,-22776,6663
10504,-22264,6919
10504,-22008,7175
10504,-22008,6919
10504,-22008,6663
10760,-22008,5895
10760,-22008,5639
10760,-22008,5639
11272,-21752,5895
11272,-22008,6407
11272,-22008,6663
11528,-21496,6663
11784,-21240,6407
12040,-20984,6407
12296,-21496,6663
12040,-22008,6407
11784,-22264,6407
11784,-22008,6919
12040,-22264,6919
12040,-22008,6663
11784,-22520,6919
11528,-22520,6663
11784,-22264,6663
11784,-23032,6663
11272,-23544,6663
11016,-23544,6919
11016,-23288,6919
11016,-23544,6407
11016,-23800,6151
11016,-23800,6151
10760,-23800,6663
10760,-24568,6663
9992,-25080,6663
9480,-25336,6663
9480,-25336,6919
9736,-25592,6919
9736,-25848,6919
9480,-25848,6919
9480,-25848,6663
9736,-25848,6919
9736,-26104,7175
9480,-26104,7175
9224,-26104,7431
9480,-26104,7943
9480,-26104,7687
9224,-26104,7687
9480,-26104,7687
9736,-26104,7943
9480,-26360,7943
9224,-26360,7687
9224,-27384,7687
8968,-29432,8967
8712,-30712,10247
7688,-31736,10503
7944,31752,9479
7944,30216,6919
8712,30216,4103
9480,32520,2055
9480,-28920,1031
9736,-26104,775
9480,-25080,263
9480,-24312,-761
10503,-24568,-761
10759,-26360,263
10504,-28152,2311
8968,-29432,4359
7944,-29432,5127
6408,-30200,7431
5896,-31480,8711
5640,-32760,9735
5640,-31736,9991
5640,-30712,9735
5896,-30456,9735
6408,-30968,9223
6408,-31480,8967
5896,-31224,8967
5384,-30968,8711
5128,-30456,8967
5896,-30712,8967
6152,-30968,8967
6152,-31224,8711
6152,-30968,8455
5896,-30712,8199
5896,-30712,8199
5896,-30968,8199
6152,-30968,8455
5896,-31736,8967
5384,32264,10759
5128,32264,12551
5640,-28920,12551
7688,-18424,11015
8968,-13816,9991
14344,17416,-4600
18695,-18680,-20216
22791,14088,25609
25095,27656,8969
23047,12552,4105
15623,-26360,16392
7687,-9720,-24825
2311,21256,263
-248,8199,14855
-760,8199,16903
-1016,10759,14855
-760,15367,13063
-248,18439,9991
264,16904,6919
520,14344,7175
1800,16136,9223
3592,18952,11015
4616,21256,11271
4616,22792,11783
4360,23304,13319
4360,24840,14087
4360,25608,13319
4104,25608,12295
3848,25864,12295
3080,26120,13319
2312,26376,13831
2312,26632,14087
2312,26632,14087
2312,26888,13831
2312,27400,13831
2056,27144,13831
2056,27400,13575
2056,27144,13575
2056,26888,13575
2312,26888,13575
2056,26888,13831
1800,27400,13575
2056,27912,13319
2056,27912,13063
2056,27912,13063
1800,28168,13063
1544,28168,12807
1544,27912,13063
2056,28424,13063
2312,29192,12807
2056,29448,12551
2056,29448,12295
2568,30216,12295
2568,31240,12295
2824,31752,12295
3080,31752,12295
3080,31752,12551
3336,-32760,12551
3336,-32248,12551
3336,-32504,12551
3080,-32760,12039
3336,-31992,11783
3336,-31480,11527
3336,-31480,11783
3336,-31480,11783
3336,-31224,11527
3336,-29944,11271
3592,-29432,11015
4360,-29688,9991
4360,-28920,9735
4104,-27640,9479
4104,-27896,9223
4104,-28152,8711
4616,-27128,8199
4616,-26360,7943
4616,-26360,7943
5128,-26104,7175
5896,-25848,6663
6152,-25592,6919
6152,-25080,6663
5128,-25080,6663
5384,-25848,6407
5896,-25592,6407
5640,-25592,6151
6152,-25592,6151
6664,-25336,6151
6408,-25336,5383
6152,-25848,5383
6152,-26104,5639
6152,-26360,5639
6152,-26360,5639
6152,-26360,5895
6408,-26616,5895
6664,-26360,5639
6152,-26104,5895
5640,-26360,6151
5640,-26360,6663
5896,-26616,6663
5640,-26872,6407
5640,-26872,6663
4872,-26616,6919
4616,-26616,6407
5896,-26872,6151
6152,-26616,6151
5896,-26616,6407
4872,-26872,6663
4872,-26872,6919
5640,-26872,6663
6152,-26872,6407
6152,-26616,5895
6152,-26360,5639
6152,-26104,5639
6152,-25848,6151
6408,-26360,6663
6408,-26872,6663
6152,-26872,6663
6408,-26872,6663
7176,-26104,6663
7432,-26104,6151
7176,-26104,6151
6920,-26360,6151
6664,-26872,6151
6664,-27128,6919
6664,-27384,7431
6664,-27384,7431
6920,-26872,7175
7176,-26872,6919
6920,-27128,6919
6664,-26872,7175
6920,-26872,7687
6920,-27128,7687
6920,-26616,7175
7176,-24312,6151
8712,-20728,5895
11016,-17912,5895
13576,-16632,5127
15880,-13304,4359
17160,-9720,3591
18440,-10488,3591
19720,-17144,5639
18952,-29176,9991
16648,19208,18695
13320,264,30215
9736,-26360,-22778
5384,8200,-6906
-504,-17145,11781
-6135,32519,28677
-10743,27911,-26107
-13559,-31737,-24315
-16119,-20217,-26875
-17911,-6393,-31995
-18679,3847,25094
-18679,11527,17158
-18679,22023,9222
-18679,27143,7686
-17911,-19705,-8186
-16888,-11513,-16378
-16376,-7161,-19962
-16120,-1785,-20474
-15864,1799,-20473
-14584,4103,-21753
-12024,9735,-23801
-9976,18695,-27129
-9464,26631,-32249
-8440,31239,25095
-6648,-31993,17671
-4856,-28665,13319
-4344,-25081,8711
-3064,-23289,3847
8,-22008,-249
2311,-17912,-3833
2823,-14328,-7417
3335,-12024,-12281
4871,-11256,-15865
6407,-8696,-17145
6663,-5112,-17401
6663,-3320,-19705
7175,-3064,-22009
7687,-1016,-22777
7943,1544,-22776
8711,4616,-25336
8967,4872,-27384
9991,5896,-29432
10247,8968,-30712
10503,11528,-32504
10759,11784,30984
11783,12040,29704
12807,14344,29192
13063,16136,28680
13063,16392,27656
13831,16136,26376
14855,16648,25608
15111,18184,24840
15623,19208,23816
16135,18440,23304
16903,18184,23304
17415,18440,24072
17671,17672,24584
17415,16392,24840
17415,15112,25608
17671,14088,26888
17927,13064,29192
17671,11016,30472
17159,8456,31240
16647,7944,32008
16391,5384,-29688
16135,2568,-27896
15111,8,-26616
14087,-2296,-24569
13575,-4088,-22265
13575,-5624,-20473
12807,-8184,-18937
12039,-9976,-17145
11527,-10744,-14585
11527,-12280,-12793
11271,-14584,-11769
10247,-16632,-10745
9479,-17656,-8953
9223,-18680,-7417
8711,-20216,-6137
7943,-21240,-4857
7943,-20984,-3321
7943,-21496,-2041
7687,-22264,-1785
7175,-23288,-1017
6663,-23288,-249
6919,-23032,775
6152,-23800,1543
5640,-24312,1543
5384,-24056,1543
4872,-24312,2311
5128,-24312,3079
5128,-24312,2823
4616,-24056,2823
4616,-23544,2823
5128,-23800,2823
5640,-23544,2567
5896,-23032,2567
5896,-23288,2823
5896,-23288,2823
6152,-23288,2055
5896,-23032,1543
5896,-22520,1543
6664,-22520,1799
6920,-22520,1799
6920,-22520,2055
6664,-22776,2311
6664,-23032,2055
6920,-23288,1799
6920,-23800,1799
6664,-23544,2055
6664,-24056,2311
6408,-24568,2567
6408,-24568,2823
6152,-24824,2823
6152,-24056,2567
7688,-23032,2567
10248,-20472,3591
12296,-18424,3335
14344,-16888,3079
16648,-12792,2823
19208,-10744,2823
20488,-13048,3847
20232,-20984,7431
19208,28168,15879
17160,8968,26887
12808,-16376,-24570
6920,18184,-6906
1288,-9720,13317
-4599,-29433,31749
-10231,27911,-20987
-15607,29959,-17659
-18935,-30457,-18171
-20215,-19705,-23035
-21751,-8185,-30459
-23031,1031,27142
-23543,12807,19718
-22519,25095,10758
-20215,-26361,-250
-19192,-22265,-4346
-16376,-7673,-16890
-15352,-2553,-20730
-14072,2567,-23033
-12792,6663,-24313
-11256,12039,-26873
-9464,18951,-30457
-7672,26887,29447
-6648,32263,22279
-6136,-31737,16391
-4600,-29945,12295
-2808,-26617,7687
-1016,-22777,2567
1032,-20472,-1529
3079,-18680,-5113
5127,-15352,-8185
6663,-12536,-12281
7175,-12024,-15097
7687,-11768,-16377
8455,-9976,-17657
9223,-6904,-19705
10247,-5112,-20985
10759,-4088,-21241
11527,-1272,-21241
12295,3336,-22520
12551,4616,-23544
12551,8712,-24312
12551,10504,-24824
12807,13064,-27128
12807,14344,-30200
12551,14088,-32760
13575,14856,31240
15623,17160,29704
15879,17416,29192
14343,15880,29448
13319,13832,30984
13319,12552,30984
13831,11784,28936
13831,9992,26120
14087,8456,25096
14343,8456,25096
15367,8968,25608
16135,8968,25608
16391,9224,26120
16903,7176,27912
17415,5640,29704
17671,4616,31496
17159,2056,-31992
15623,264,-29944
15367,-1016,-28153
15367,-1528,-27897
15367,-4856,-24569
14599,-6648,-22777
13319,-8696,-21241
13575,-9976,-19705
13319,-11768,-17913
12295,-14072,-15865
11015,-15352,-14329
11015,-16376,-13049
11015,-17912,-12025
10247,-18936,-10745
9991,-19960,-9721
9735,-20984,-8697
9479,-21496,-7929
9479,-22776,-6393
9479,-23800,-5113
8967,-24056,-3833
8199,-24312,-3321
7943,-24824,-2553
8455,-25592,-1529
8711,-25848,-761
8967,-25848,-505
8455,-26104,-249
7687,-26872,519
7688,-27128,775
7944,-26872,775
7688,-26872,1287
7944,-26872,1799
7432,-27128,1543
7432,-26616,1287
7688,-25848,1287
7688,-26104,1543
7944,-26616,2055
7944,-27128,2055
7944,-27384,2311
8712,-26616,2055
8968,-26104,2055
8968,-26360,2055
9224,-26616,1799
8968,-26872,1799
9224,-26872,2055
9480,-27128,2055
9224,-27640,2311
9224,-27640,2823
9480,-27384,2567
9736,-27640,2311
9224,-27640,2311
9224,-28664,3079
8712,-29432,3591
8712,-29176,3335
8712,-29176,3335
7688,-29688,3847
7432,-29944,3847
7688,-29432,3591
8200,-28920,3591
8200,-28920,3591
7944,-29688,3847
7688,-29944,3847
7176,-30200,4103
7176,-29688,4359
7176,-28920,4871
7432,-28920,5127
7944,-29688,4871
7944,-29688,4615
7688,-29432,5383
7944,-29688,5383
7944,-30200,5383
7432,-30200,5639
7176,-29944,6151
7176,-29944,5895
7432,-29944,5895
7688,-29944,5895
7432,-30456,5383
7688,-30200,5383
7688,-30200,5639
7688,-29944,5895
7944,-29944,6407
8200,-29688,6663
7688,-30712,6151
7688,-30712,5639
7432,-29944,5639
7688,-29944,5383
7432,-30200,5639
7432,-29944,5895
7688,-29688,5895
7432,-30456,5895
7176,-30968,5895
6920,-30456,5895
6664,-30712,5127
6664,-30712,4615
6408,-31224,4615
5640,-31224,3591
5640,-29432,1031
5384,-25848,-2041
5127,-24312,-3321
5383,-24312,-3321
6407,-24056,-2297
7431,-22776,7
6664,-23544,5383
5128,-25848,10247
4104,-27128,10759
2312,-29432,14599
2312,-29688,15111
2824,-29944,13575
2824,-31992,9735
3592,-32760,6151
3848,32520,5383
3336,32008,6151
3336,30728,5895
3336,30472,4871
3080,30984,4103
3848,31240,4359
4616,30984,4103
4872,30984,4103
4872,30984,4871
4872,30728,5639
4360,31752,5895
4616,32264,5639
4616,32264,5383
4616,31752,5383
4872,32008,5383
4872,32008,4871
4872,32008,4359
4872,32008,4359
4616,32008,4615
4360,32264,5127
4360,29192,7943
4360,32008,8711
6408,-25592,8199
8712,-13048,4359
11272,4360,-3832
15879,28168,-17144
21511,-4600,30728
25351,21000,11273
25863,20232,-1527
20486,-10744,2568
12551,7432,22792
5383,28168,-15865
7,5896,3847
-1272,2055,11527
-504,4871,11271
-248,9479,9479
-248,13575,6663
-248,14087,3335
264,11272,2823
1800,11528,3591
4104,15112,4871
5128,17928,5895
4872,19208,7175
4872,20232,8199
5640,21768,8455
5384,23560,7943
4872,23560,7687
4616,23304,7687
4616,24328,7431
4104,25352,7431
4104,25608,7687
3336,24840,7943
3080,24584,8711
3336,25864,9479
3592,26632,9991
3336,26120,10247
3336,25352,9735
3336,25096,9223
3336,25608,8711
3080,25864,8711
3080,26120,8711
3080,26376,8711
3592,26632,8199
3336,26888,8199
3080,27400,8199
3336,27912,7943
3336,27912,8199
3336,28424,8455
3336,28680,8455
3336,28680,8199
3592,29448,8199
3336,29960,8455
3592,30472,8711
3592,30984,8199
3848,31752,7687
3848,32008,7687
3592,32008,7687
3080,32520,8455
2824,-32504,8711
2824,-31992,8199
3336,-32248,7687
3592,-31992,7687
3336,-31992,7431
3336,-31224,7431
3592,-30968,7687
3848,-30712,7431
3848,-30200,6919
4104,-29432,6663
3848,-28664,6407
4104,-28152,5895
4616,-27640,5127
5128,-26872,4871
5640,-25848,4615
5640,-25848,4359
5640,-25848,4103
5640,-25336,4103
5384,-25080,4103
5384,-25080,3591
6152,-25080,2823
6408,-25336,2567
6408,-24824,2311
6664,-24312,2311
6664,-24568,2567
6920,-24824,2567
6664,-25080,2055
6664,-25080,2055
7176,-25336,1543
7176,-26360,1543
6920,-26616,1543
6664,-26616,1799
6408,-26872,2055
6408,-26616,2311
6408,-26616,1799
5896,-26616,1287
5640,-26616,1543
5384,-27384,1543
5384,-27640,1287
5384,-27384,1287
5128,-27384,1799
4872,-27384,1799
5128,-27896,1543
5128,-27896,1799
4872,-27640,1799
4872,-27640,1543
4872,-27896,1543
5128,-27896,1799
5128,-27896,2311
5128,-27896,2567
5384,-27640,2311
5640,-27384,2311
5384,-27384,2055
5640,-27384,2567
6664,-27640,2823
6408,-27896,3335
6152,-27896,3079
5384,-28408,3079
5128,-28920,3335
5896,-29176,3335
6664,-28920,3847
6920,-28664,4359
6920,-28408,4103
6664,-28664,4103
6920,-28920,4103
7688,-28408,4103
7944,-27384,4615
7944,-27384,4615
7176,-28408,4359
7432,-28664,3591
7688,-27128,3335
8712,-24824,3847
10504,-23288,4103
12296,-21496,3847
14600,-18168,3591
17672,-13304,3591
20744,-10744,2823
22536,-11256,2823
23048,-16376,4871
22536,-28408,12039
20488,20744,23303
16136,-1016,-27898
10504,-29944,-10234
3848,6920,10246
-3063,-15865,30213
-9975,-27129,-21499
-15607,-27129,-17147
-18423,-20217,-18683
-19703,-9465,-24827
-21495,1287,31494
-22775,10503,21766
-23031,13575,19462
-22775,31751,6406
-21495,-25593,-1786
-19448,-17657,-9978
-17400,-11769,-15098
-16376,-6393,-17402
-16376,-1273,-19706
-16120,1543,-23033
-15096,6663,-26617
-12536,14343,-30969
-9976,21767,29703
-8440,28423,22279
-7160,32007,15367
-5880,-31481,10503
-4856,-29177,6407
-2808,-26873,2055
-504,-24313,-2041
1543,-20984,-5369
3591,-17656,-9209
5127,-14840,-13817
6407,-13560,-17913
7687,-12024,-19193
7943,-9720,-19961
8455,-8184,-22009
8711,-6904,-24057
8967,-6392,-24313
10247,-2552,-26105
10503,-504,-27897
11015,776,-30456
11527,1800,-31992
12039,3848,-32760
12295,6408,31496
13063,7688,28936
13319,8712,27144
14087,10504,26376
15111,12552,25352
15367,13576,23048
16135,14344,21000
16647,15624,20488
17415,16392,19976
17671,16904,18952
18183,16648,17672
18951,16904,17416
19207,17160,17928
19463,17160,17928
19975,16904,17928
20743,15880,18696
20487,14088,20488
20231,13320,22280
20487,11784,23304
20487,11016,23816
20487,7432,27144
19975,4872,29192
18951,2824,30728
18439,520,-32760
18439,-1784,-30201
18439,-3576,-27641
17415,-5624,-25849
16647,-7672,-24057
16903,-9464,-21753
16647,-11256,-19449
15879,-12536,-17913
14855,-14072,-16889
14599,-15864,-15097
14343,-17400,-12793
13575,-18680,-11257
12295,-19960,-10489
12295,-20728,-9465
12295,-21240,-7417
12295,-21240,-6137
12295,-21752,-5625
11527,-22520,-4601
11271,-23544,-2809
11271,-23800,-1785
11015,-23544,-1529
10759,-23544,-1529
10503,-24056,-505
10503,-24312,263
10248,-24312,263
10504,-24312,263
10760,-24568,1031
11016,-24312,1799
11016,-24312,1799
11016,-23800,1799
10760,-23544,1799
10504,-23800,1799
10760,-24056,1031
11528,-23800,775
11272,-23288,1031
11272,-23288,1287
11272,-24056,1543
11016,-24056,1543
10760,-24312,1543
10760,-24056,1799
10760,-24056,1799
10504,-24312,2055
10504,-24824,1799
10248,-24824,2055
11016,-24312,3079
12040,-22776,3079
12040,-22520,2823
14088,-21240,3079
16136,-19960,3335
18952,-17656,3591
21768,-13560,3335
23048,-12536,4103
23816,-14584,5895
24840,-20472,10247
23816,30216,17415
20744,11272,27655
15368,-15352,-23034
10248,19208,-4346
4360,-8184,15621
-2551,-28153,-32507
-9207,29191,-20475
-13303,32519,-16635
-15351,-26617,-17659
-17143,-17145,-23291
-19447,-7673,-30203
-20215,2055,28422
-19959,15111,20998
-18935,28423,11014
-17143,-23545,-506
-14840,-11769,-10746
-12792,-4089,-16890
-12280,-2041,-18426
-11256,5127,-22265
-9976,9223,-23545
-8184,15111,-25849
-6136,21767,-30201
-4600,28679,28935
-3576,-31993,21511
-2296,-28921,15879
-504,-26105,11527
1288,-23288,6663
3336,-19704,1799
5640,-16888,-2553
7687,-14328,-6905
9991,-11768,-10745
11015,-10232,-14073
11271,-8952,-15609
11783,-7672,-16377
12039,-6392,-17401
12295,-4344,-18681
12807,-2808,-20473
12807,-1272,-20985
13831,1288,-21496
14855,4360,-22520
14855,7688,-23544
14855,10504,-24056
15367,11528,-24312
15367,15368,-26872
15367,16648,-28920
15111,17672,-30712
15111,18696,32520
15623,19720,29448
16135,20488,27400
16391,20744,26632
16135,20744,26632
16391,21256,26120
16647,20232,25608
16391,17928,25864
16391,15624,28168
16903,14344,30472
17927,14344,32008
18183,14600,32520
17671,14088,32264
17671,13576,32520
17415,11272,31496
17415,9480,29960
17671,8200,29960
17415,6664,31240
17415,4104,-31992
16903,1288,-29688
16391,-504,-27129
16135,-1272,-26617
15879,-5112,-22777
15367,-7672,-20217
14343,-8952,-18425
13575,-10488,-16633
12807,-12280,-14585
12551,-14328,-13049
11783,-15864,-11513
11527,-16376,-10233
11527,-16888,-9209
11527,-18168,-7673
11527,-18680,-6905
11527,-19192,-5625
10759,-20728,-4345
9991,-21496,-2809
9991,-22520,-1785
9991,-23032,-1273
9735,-23032,-1273
9223,-23544,-761
9223,-23800,-249
9223,-23544,-249
8967,-23800,-249
8967,-24312,7
8968,-24824,519
8712,-24824,519
8968,-24312,519
9736,-23800,775
9736,-23800,775
9736,-24056,1031
9992,-24312,1031
9480,-24824,775
8968,-24824,1543
9480,-24824,2311
9992,-25080,2055
10248,-25336,1287
10504,-25336,1031
10248,-25080,1031
10248,-25848,1031
10504,-25592,1031
10504,-25848,1031
10248,-25848,1031
10248,-25848,1543
10504,-26360,2055
10760,-26616,2311
10760,-26360,2055
11016,-25592,2055
11784,-25080,2311
13320,-23032,2311
15112,-20472,2311
17928,-18168,2823
19208,-17656,2823
23304,-11768,2567
24840,-10744,2567
25864,-13304,4103
25608,-23544,9223
23304,26376,19719
18696,5896,32519
12552,-23544,-17402
6664,9992,3078
9,-16632,24325
-6903,32519,-24059
-12023,30471,-14843
-15351,-29433,-14587
-17655,-19961,-18171
-19447,-7673,-25339
-20983,4103,30214
-20983,14599,20230
-20471,24583,12294
-18935,-29945,3846
-16375,-17657,-6394
-14072,-9209,-15354
-12792,-4089,-19194
-11768,263,-19449
-11256,3591,-19961
-9464,8967,-21241
-8696,9991,-21241
-5624,23047,-27129
-4088,30983,31495
-2552,-29433,22279
-1784,-27641,15111
-1272,-25593,9735
-1272,-20985,2823
264,-15864,-5625
3079,-12024,-11769
5127,-8696,-15353
7687,-4600,-17913
9735,-2040,-19961
9991,-1784,-20217
9991,-1784,-16889
9223,-1784,-13305
8199,-1784,-12793
8711,-1784,-13049
9991,-1784,-14841
10759,-1528,-17657
10503,776,-23288
10503,1288,-27384
11527,1032,-28408
12295,2312,-28408
12551,4360,-29432
13063,5384,-31736
13575,5640,-32504
14855,7688,30472
15367,9480,28936
15367,10760,27144
15879,11784,26632
16903,12296,26376
17159,12808,26632
17415,15112,25096
18183,15880,24328
19207,15624,24328
19975,15624,24328
19719,15880,24328
19463,15624,24328
19719,15112,25608
20231,13064,26888
20231,11016,28680
19719,10760,30216
19719,9480,31240
19975,6664,-32760
19719,4872,-31224
19207,3592,-29432
18695,2056,-27640
18183,-1016,-25337
17415,-3320,-23289
17159,-4088,-21753
16903,-4088,-21497
16391,-7416,-18681
16391,-9464,-16633
15879,-11000,-15353
15111,-12024,-14073
14599,-13560,-12537
14599,-15608,-10489
14087,-16376,-9465
13575,-16120,-8697
13319,-16632,-7417
13063,-18168,-6393
12551,-19192,-5625
11783,-19192,-5113
11783,-19448,-4089
11527,-20728,-2809
11271,-21240,-2297
10503,-21496,-2041
10503,-21496,-1785
10503,-21752,-1017
10503,-22520,-761
10759,-22776,-505
10759,-22520,-505
10503,-22520,263
9992,-22520,1031
10248,-22520,775
10248,-22776,775
9992,-22776,1031
9992,-23032,1799
10504,-22776,2055
10504,-22520,2055
10504,-22520,2055
10760,-22520,2311
10760,-23288,2567
11016,-23288,2567
11272,-23032,2311
11016,-22776,2567
11016,-22008,2823
12808,-21240,3079
14600,-20472,3591
16392,-18680,4615
18184,-17400,5383
21512,-14840,5383
24072,-13048,5383
24840,-14072,7175
24840,-19704,10759
24840,-32248,17159
23304,14600,27655
17928,-9464,-24058
11272,25352,-6138
5640,-4088,13829
4361,-12280,19973
-5367,30215,-19707
-10743,30471,-14331
-14327,-29689,-15099
-15863,-20729,-19451
-17911,-10233,-25851
-19959,-1017,-32507
-20471,11271,25606
-18423,24839,16134
-16375,-27385,5126
-14071,-13817,-5114
-12536,-5113,-12282
-11000,519,-16377
-10488,4615,-18681
-10488,8711,-19961
-8952,14343,-22777
-6392,20743,-27385
-4344,27911,31239
-3320,-31993,24583
-2040,-29689,18695
8,-27384,13575
1800,-24056,8967
3592,-20728,4615
5384,-17912,519
7688,-15608,-3833
8967,-14328,-5369
10759,-11768,-12025
11015,-10488,-14073
11783,-10232,-15097
12295,-8952,-16121
12295,-6648,-17145
12551,-5624,-17913
12807,-4600,-18937
13319,-2552,-20217
13831,-760,-21753
14343,520,-23544
14343,1032,-24568
14599,1800,-25848
15111,3336,-27384
15623,4616,-28920
15367,6152,-29944
15623,7432,-31224
16647,9736,-32760
17159,11528,31496
17159,11784,30472
17415,12808,29704
17159,14088,28424
17671,15880,27144
18951,16392,26888
19207,16136,26376
19207,16648,26120
19207,17160,25352
19463,16904,25096
19975,15880,26120
19719,14088,27912
19207,13320,29192
19207,12552,30472
18951,10504,32264
18951,8200,-31480
18695,6664,-30200
18439,5128,-28408
18439,2824,-26360
17671,264,-24056
16903,-1528,-22009
16903,-2552,-20217
16391,-4856,-18681
15367,-7416,-16633
15111,-8696,-14841
15367,-9720,-13817
14855,-11256,-12537
14087,-12792,-10233
13319,-14072,-8697
13319,-14328,-7673
13063,-14584,-6649
13063,-14584,-4857
13319,-14584,-3833
13575,-12792,-1785
13063,-11512,-761
12295,-10744,775
10760,-10232,2311
10248,-9464,2311
10248,-9464,2311
10248,-9720,1799
9992,-10488,775
9992,-12024,-249
9991,-12536,-505
10247,-12280,-249
9735,-14072,263
8968,-18424,1287
7944,-21240,3847
7944,-22776,6407
7944,-23288,7687
8200,-23288,7943
7944,-23032,8711
7688,-23032,8967
7688,-23288,8199
7944,-23288,5895
7944,-23544,3591
7944,-24312,2567
7944,-24312,2311
8200,-24568,1799
8200,-25336,2055
8200,-26104,2823
8968,-27128,3847
9224,-27640,4615
9224,-27896,4871
9224,-27128,5127
9736,-25592,5383
11528,-23544,5639
14600,-21496,5895
17160,-19192,5127
19208,-15352,4103
21512,-12280,3847
24072,-12280,4615
24584,-14072,7175
22792,-21752,12039
20232,31240,20231
16136,14344,31495
11016,-11256,-19706
4104,23304,262
-3575,-3833,21509
-10487,-23289,-27131
-15351,-28921,-17403
-18423,-24057,-15611
-20215,-14329,-20219
-20727,-10745,-22523
-20983,9223,26630
-20727,19975,17670
-20215,30471,9478
-18679,-26617,262
-15607,-18169,-8698
-14072,-10489,-15098
-13304,-5881,-18682
-12536,-2809,-19450
-11000,-505,-19706
-9464,3591,-19961
-8184,10503,-20217
-6648,18183,-22265
-3832,25607,-28921
-2040,31751,28423
-2040,-31737,20487
-2296,-30457,14599
-1528,-26873,8199
1544,-22776,2567
5384,-19704,-761
7175,-17656,-3577
7431,-15864,-8441
8455,-13304,-13305
9479,-11000,-16633
10503,-7928,-17145
10503,-6904,-17657
12551,-4600,-22009
13831,-3832,-23801
13831,-2552,-24057
13831,-1528,-24313
14087,264,-25848
15111,2056,-27128
16647,3336,-28152
16903,4360,-28920
17159,5640,-30200
17159,6408,-32504
17159,6920,32264
18183,8200,32008
18951,8968,30984
18951,9992,29704
19207,10760,28680
20231,11272,28168
20999,12040,28168
20743,12808,26888
21255,12808,26120
22023,13064,26376
22535,13064,27144
22535,12808,27656
22535,12296,28424
22535,11272,29704
22279,10504,30472
22279,9224,32264
22535,9224,-32248
22791,7432,-30456
22791,5384,-28152
22535,3848,-26360
21511,2056,-24824
20487,264,-23288
20231,-1528,-21753
19975,-2808,-19961
19719,-4344,-17913
18951,-6136,-16377
17927,-8440,-14841
17159,-10744,-13049
16391,-11768,-11257
15623,-12792,-9977
15111,-14584,-8441
15111,-15096,-6905
15367,-15864,-5369
14599,-17144,-4089
14087,-18424,-3065
13575,-19704,-1785
13319,-20216,-505
13319,-20216,263
13320,-20216,1543
13064,-20472,2055
12808,-20984,3335
13064,-21752,3591
12552,-22008,4359
12040,-21752,5127
12040,-21496,5639
12040,-22008,5895
12296,-22264,6151
12552,-22520,6151
12040,-22520,6151
12040,-22264,6151
12040,-22008,5895
12040,-21752,6151
12040,-22008,6663
11784,-22008,6663
12040,-22008,6407
12296,-21496,6407
12296,-21496,6407
12296,-21496,6663
12296,-21496,5895
12296,-21496,5383
12296,-22008,5639
12296,-22008,5639
12296,-22264,5383
12040,-22008,5639
12296,-21752,6151
13832,-17400,6919
14600,-14072,7431
15112,-10488,8199
16392,-6648,8967
17928,-4344,8967
20488,264,8968
23048,4104,7176
25096,3080,6152
25864,-504,6919
26120,-12536,12551
23048,-30200,22535
16648,11272,-28921
10248,-23032,-10490
4616,7688,11526
-1783,-18937,-32251
-7927,31239,-16635
-12791,32007,-10491
-15863,-26617,-9979
-17655,-17401,-13819
-19703,-6649,-21243
-20727,3335,-31482
-20727,14599,23558
-19703,26631,13574
-17655,-27897,3590
-16887,-24313,-1018
-13816,-9721,-14330
-11512,-4601,-17146
-10488,-1017,-17914
-9720,2055,-19705
-8696,7431,-22521
-6648,14087,-25337
-4344,20999,-29945
-3320,26631,27911
-3064,29447,20487
-1784,31239,15879
8,-31992,12551
1544,-28920,8967
3336,-26616,4871
5384,-24568,1799
7432,-21752,-761
8967,-18936,-4089
9735,-18168,-8185
10503,-16888,-10233
11783,-15608,-10489
11783,-14072,-11257
12039,-12792,-13305
11783,-11512,-14841
12039,-9208,-15097
13063,-6648,-16121
13575,-5880,-17913
13575,-4088,-20729
13575,-2808,-20985
14855,-1272,-20985
15623,264,-23288
15879,1032,-25592
15879,1800,-26104
16135,3336,-26360
16391,4872,-28408
16647,5896,-30456
17671,6920,-30712
18183,9480,-30968
18951,11016,-31992
19207,11016,32008
20231,11784,31496
20487,12552,31240
20231,12552,31496
20487,12296,31752
20999,12296,31752
20999,11528,-32504
20743,10504,-30968
20743,8712,-29688
20743,6920,-27896
20487,5384,-26104
20231,3080,-24056
20487,2056,-23288
20231,-760,-20473
18951,-2296,-18169
17927,-4088,-15865
17927,-6392,-14073
17159,-8440,-12537
16647,-10232,-11001
16135,-11256,-9465
16135,-12536,-7673
16391,-14072,-6905
15367,-15608,-5113
14599,-16888,-3577
14087,-18936,-2041
13831,-19960,-761
12807,-20216,263
12040,-21496,1287
12040,-22008,3079
12808,-21496,4103
13064,-21496,4615
13320,-21752,5383
13576,-22008,6407
13320,-24312,6919
12040,-25080,7175
11272,-23544,7175
11016,-22520,7175
11016,-23032,6919
11784,-23032,6663
11784,-23288,6919
11528,-23288,7687
11784,-23032,7687
11272,-22776,7687
10760,-22008,7687
11528,-21240,7687
11784,-21496,7687
12040,-21496,7431
11784,-22008,7687
11784,-22264,7943
11528,-22520,7687
11784,-22520,7687
11272,-22520,7943
11016,-22776,8199
11016,-22776,7943
11784,-22776,7687
11784,-22520,7687
12296,-20472,7687
13576,-19448,8199
15624,-17144,8455
17928,-13560,8455
20488,-9720,8199
23048,-3832,7431
24072,-1784,6663
27144,3336,4104
27400,776,5896
27400,-9976,12551
25096,-29432,23303
19976,4872,-27385
14088,32008,-7418
7944,-3320,15365
2569,-28664,-29435
-3319,26887,-16123
-8439,30727,-13051
-12023,-26105,-14843
-14071,-13561,-20475
-15863,-761,-30203
-16631,11783,25606
-16375,24583,16646
-15095,-30201,8710
-12279,-21241,6
-10231,-11769,-8186
-9208,-5113,-13050
-8184,-761,-15098
-6904,1799,-16121
-6392,6151,-16889
-5624,12807,-17401
-3320,19719,-19705
-2296,21511,-20729
-1272,30727,-30457
-1272,-31993,28935
-1528,-29689,24327
-504,-27385,19207
2056,-24824,13575
4360,-21240,8711
6664,-16120,6663
8712,-11512,4103
10504,-7416,7
11528,-3064,-3833
11527,8,-4856
10503,1800,-5880
10503,3336,-8696
10503,4616,-12024
11015,5384,-14072
12295,6920,-15096
12551,7688,-16888
12551,7944,-18680
12295,8712,-18680
11783,8200,-18168
12039,6408,-17656
12039,5128,-17912
12807,4616,-17400
13319,6152,-16632
13319,7176,-16632
13575,10504,-18936
13575,11528,-21496
13319,13064,-24568
13575,14856,-28152
15111,16136,-31224
15879,16904,-32760
16135,17416,32008
16647,17672,31752
17415,18184,32008
18183,17672,-31992
18439,17160,-30200
18439,16136,-29432
18695,13064,-28408
18439,11784,-26104
17927,10504,-24568
17415,8200,-23288
17415,6920,-22520
17415,5896,-20984
17415,4104,-18680
17415,1544,-17400
16647,-1016,-16121
16391,-2552,-13561
16135,-4088,-11257
15623,-7160,-10489
15111,-8696,-10489
12807,-11256,-7673
12039,-12024,-5625
13063,-12792,-4089
14087,-13048,-2553
14343,-13560,-1273
14343,-13816,263
14600,-15096,1799
14600,-17656,1799
14344,-17656,1799
13064,-17912,3591
12040,-19960,4871
12040,-21240,5383
11784,-21752,6151
12040,-18680,7431
14856,-15608,8711
17160,-18168,9479
16392,-20728,9223
12552,-23288,9223
7688,-26616,9223
6408,-26616,8967
8456,-24568,8967
9480,-24824,8711
9224,-24568,8455
8968,-25080,8967
9224,-25592,8967
9224,-24824,8711
8968,-23800,8967
9992,-23800,9735
10760,-25080,10759
11784,-24824,10759
11528,-24824,10503
11528,-23800,10503
12552,-23288,9991
12808,-23800,9735
11784,-24312,9991
11784,-24056,10503
12040,-23032,10759
13832,-21240,10503
15624,-18424,10247
17416,-14840,10503
19976,-9976,9223
23048,-1784,6407
26376,4104,3080
28168,6920,2312
28424,6152,3592
28424,-2808,7943
26888,-19960,16647
22792,16392,31239
16648,-23544,-13562
14600,29960,-6906
4872,-22776,32005
-1271,28423,-16635
-7415,31239,-10235
-11767,-24057,-12027
-13047,-11513,-20219
-13815,775,-30714
-15351,12807,25350
-15351,25863,16902
-14071,-29433,7942
-12023,-20473,-250
-10232,-12025,-7162
-9464,-5881,-11770
-8184,-1785,-15098
-6648,263,-16377
-6648,2567,-16377
-5880,7943,-16377
-5112,16391,-17913
-3576,23815,-22009
-2552,30215,-28153
-2552,-31225,31495
-2296,-28665,26375
-504,-26873,21767
1032,-25592,16391
2056,-22776,12039
2568,-21240,11783
6408,-15352,4615
7944,-12536,-249
8455,-11000,-4345
8455,-8952,-5625
9479,-6904,-6137
10759,-5112,-7673
11783,-4344,-9209
11783,-3064,-9977
12295,-2040,-10745
12551,-2040,-12793
12551,-1784,-14585
12551,520,-14840
12551,2312,-15096
13319,3592,-16376
15367,6664,-17656
16903,9736,-18680
16903,11016,-19704
17159,12296,-20984
16647,12296,-22776
14343,11528,-24312
13319,12808,-25336
13063,14088,-26104
14599,15368,-27128
15879,18184,-27896
16135,19208,-28152
16903,19976,-28408
17927,19976,-28408
18695,20232,-28408
18439,20232,-28408
18439,19976,-27640
18439,18696,-26616
18951,18696,-25592
19975,18696,-24312
20743,18184,-22264
20743,17928,-19448
19719,17416,-17656
18183,15624,-16376
16391,15624,-14840
15879,15112,-13048
15623,12296,-12024
15111,9224,-11768
14599,6664,-11768
13831,4872,-10232
13063,2312,-8696
12551,-248,-7673
12039,-1784,-5369
11783,-4600,-2297
12295,-8440,7
12808,-12024,1799
12552,-13048,2567
12552,-14584,6663
12552,-15096,8967
11784,-16632,9223
11016,-16888,8711
10760,-16888,7431
10760,-17400,5127
10504,-17912,3335
10248,-18936,2823
10504,-19192,2567
10504,-19192,3335
10504,-20472,4615
10248,-21240,5383
10248,-21240,6151
11528,-21240,6663
12296,-21240,6919
12040,-21752,7431
11784,-21752,7687
12040,-21752,7687
12040,-22008,7431
12040,-21752,7175
12296,-21752,7175
12040,-21752,7175
12040,-22008,6663
12040,-22520,6663
11528,-22520,6663
11528,-21240,6663
12040,-19704,6663
13576,-17400,6407
16392,-14072,6151
18952,-10488,5383
21768,-6136,3335
24328,-248,775
26888,3080,-248
28167,3848,-248
28679,-1016,1543
27656,-13304,7687
25096,-31224,18439
20232,7944,32519
15112,-26360,-15354
9992,8200,5894
4105,-16120,26885
-2807,-28153,-24315
-8183,-27897,-18683
-11767,-19449,-21243
-13303,-8185,-26875
-14583,3591,30726
-15351,15111,21254
-15351,26631,11782
-14839,-29945,3078
-13815,-26873,518
-11255,-11001,-12538
-10744,-4857,-18938
-9464,-761,-21242
-8184,2055,-21497
-7928,5127,-21241
-6648,11271,-21241
-5112,18695,-23033
-3064,26119,-27641
-2296,32263,30983
-2040,-29433,23559
-1016,-26617,17671
264,-24568,12295
1288,-22008,6407
2824,-19448,1543
4872,-16120,-2297
7431,-12280,-5881
9479,-9464,-9721
10247,-7672,-13561
10759,-5880,-14841
11783,-4088,-15865
11783,-2808,-17401
11783,-1528,-19705
11527,8,-20728
11783,1544,-21240
12551,2312,-22008
13831,3592,-24312
13575,4360,-25336
13575,5640,-25592
13319,6920,-26360
14087,7944,-28152
15111,9224,-29688
15623,10504,-30200
15879,11784,-30712
16391,12552,-31992
17415,12808,32264
17415,13064,32520
17159,13576,32520
17159,13576,31240
17671,13832,30472
18695,13832,30472
19207,13832,30984
18951,13576,31496
18695,13320,31496
19207,12552,-32504
19463,11528,-30968
19463,10504,-29688
19207,9224,-28664
18951,7944,-27640
18695,5896,-25592
18439,5128,-24824
17671,2568,-22776
16903,1288,-21240
16903,-760,-18937
16647,-2552,-17145
16391,-3576,-15865
16391,-4600,-14329
16135,-6648,-13049
15879,-8952,-11257
15879,-11000,-10489
14087,-13304,-9465
12295,-14328,-7673
12551,-15096,-5625
12807,-16376,-4601
12807,-16888,-4089
12295,-17144,-3065
11783,-17912,-1529
11783,-18424,-505
11783,-18680,-505
10759,-19448,7
9736,-19960,1031
9736,-20216,2311
10248,-20216,2311
10504,-20216,2567
10248,-19704,3335
10248,-19448,3591
10504,-19448,3591
10760,-19192,3847
9992,-18936,3847
9224,-19448,3591
9480,-19448,3591
9992,-19192,3847
9992,-18424,3591
9992,-18680,3335
10248,-18680,3335
10248,-18936,3335
9992,-18936,3335
9736,-18936,3335
9736,-19192,3335
10248,-18680,3591
10248,-18424,3847
11016,-17656,4103
11016,-16888,4103
11016,-15096,4615
11528,-12792,5895
12040,-9464,6407
12040,-7416,6407
12552,-6136,6151
13576,-3832,5127
15880,-1784,4359
16648,-1272,4359
21000,3848,2312
23304,3848,1544
25096,-760,1799
25096,-12536,6663
22792,-32504,16647
19208,8968,29703
13832,-20984,-18938
8200,13064,1798
2825,-12280,23301
-2551,-27385,-25339
-8183,-30969,-16891
-12535,-28153,-16379
-15095,-22265,-19707
-17143,-12281,-26619
-19191,-1529,29445
-20727,8199,21254
-20727,19463,14086
-19959,30983,5638
-18167,-23033,-5882
-16120,-13049,-14842
-14840,-6905,-19450
-13560,-1529,-21754
-12536,3847,-23289
-11512,8711,-25849
-10744,9735,-25849
-7672,20743,-31737
-6648,28423,27655
-5624,32007,20231
-4856,-31481,15111
-3064,-29177,11527
-1784,-26361,7687
-248,-23289,3079
2312,-20984,-249
4359,-19192,-2553
5127,-15608,-6393
6151,-13304,-10233
6919,-13304,-12793
7687,-12280,-13305
7687,-10232,-14329
7687,-8184,-16633
8967,-6648,-18425
9479,-5624,-18681
9991,-4088,-18425
10247,-1784,-20473
10759,-760,-23033
11527,-760,-23545
12295,776,-24056
12551,3336,-25592
12807,4104,-28664
13319,3848,-29176
13575,5384,-29688
13575,7176,-30712
14343,8456,-32504
15111,9224,31496
15879,9480,31752
16135,10248,31240
16391,11272,29192
16903,11528,28424
17415,11784,28936
17159,11784,29960
17159,11528,29704
17671,10760,29704
18439,9736,31240
18183,8712,-32248
18183,7688,-31480
18439,6152,-30968
18439,4616,-28920
17927,3080,-26360
17415,1288,-24312
16903,-760,-23033
16135,-2040,-21241
15623,-4088,-18937
15111,-5624,-17401
14855,-6648,-16633
14855,-7416,-16121
14087,-11512,-12793
13575,-12280,-10745
12807,-13560,-9721
12551,-15096,-8441
12807,-15864,-6649
13063,-16632,-5113
13063,-17144,-5113
13063,-17656,-4345
12807,-18680,-2553
12039,-20472,-761
10503,-22520,-761
8199,-24056,-761
6407,-24568,-249
6151,-24568,1031
6920,-23800,1543
7432,-23544,1543
7176,-23288,1799
7176,-23288,3079
7432,-23288,3335
7432,-22520,3079
7944,-21496,3079
8456,-21496,3335
8200,-22008,3847
8200,-21752,3591
8456,-21240,3591
8200,-21240,3847
7944,-21240,3847
8200,-20984,3079
8200,-20728,3335
8200,-20216,3335
8200,-20472,2823
8712,-20472,2567
8968,-19960,2311
9224,-20216,2567
9224,-20472,2311
9480,-20216,2567
9480,-19960,3335
9736,-18424,3591
11528,-15864,3591
14344,-12792,3591
16136,-10744,3079
17928,-7416,3079
20744,-2552,2567
23048,-2040,2311
24072,-6648,4103
23816,-17912,9735
22536,29448,19463
19464,4360,32519
13064,-29176,-16634
10248,25352,-10746
520,-18936,23557
-4087,-31737,-26619
-8439,-31993,-19963
-12279,-27385,-19707
-14839,-20985,-22267
-16887,-10489,-27899
-18935,-1273,29445
-21239,9223,20742
-21751,23047,12294
-19959,-28409,2310
-17399,-15097,-8442
-15864,-6137,-16634
-14584,-505,-20986
-13304,4615,-22009
-12536,8455,-24057
-11256,13831,-27129
-9208,20231,-29945
-7416,26375,31751
-6136,-32249,24839
-4088,-28153,18183
-2296,-27129,14087
-1272,-24825,10247
520,-20984,5895
2312,-18680,519
2824,-18936,-1017
4103,-15608,-6649
5127,-12792,-9977
5895,-12280,-13049
6151,-9976,-15097
7431,-6136,-14841
8967,-1528,-14585
9735,2568,-16632
9991,5128,-17912
10247,7176,-17912
9479,8456,-18680
8711,9224,-21752
8455,9992,-24824
8199,10760,-26616
8967,13064,-27128
10503,14600,-29944
11015,14344,-32248
10503,13320,-32248
9735,12552,-31736
9479,12040,-31736
9991,11528,-31992
10503,10504,-31480
10759,10504,-29944
10759,12808,-30200
11015,14600,-32504
11015,14856,32008
11271,14088,28936
11783,14088,27400
13063,14088,26632
13319,13576,26376
13575,12552,27144
13575,9992,29192
13319,7688,31240
13831,6152,-32504
14343,3848,-30712
14087,1032,-27640
13063,-760,-25081
12295,-2040,-23545
12295,-3320,-22521
12295,-5624,-20473
11783,-7928,-18425
10503,-8952,-16889
10247,-10744,-15865
10247,-12792,-14329
9479,-14584,-12281
8711,-15352,-11001
8711,-15608,-9977
8967,-17144,-8441
9223,-18680,-7161
9223,-19448,-6137
8711,-19448,-6137
7431,-20984,-4089
7687,-22264,-2553
7431,-22520,-1529
7175,-22776,-1017
7431,-23032,-505
7431,-22776,263
7432,-23288,775
7432,-24312,519
7432,-25080,775
6664,-24824,2055
6408,-24824,2567
7176,-25336,2311
7432,-26360,2311
7176,-26616,2567
7432,-26104,2567
7944,-25592,3079
8200,-25848,3335
8200,-26104,3335
8200,-27128,3335
8200,-26872,3079
8200,-26872,3079
8200,-26872,3335
8200,-27128,3591
8200,-27384,3847
8200,-27384,3591
8200,-27896,3335
8456,-27640,3847
8968,-25848,5127
11016,-23544,5383
13832,-21240,5383
15880,-20216,5127
17928,-17656,5127
21000,-13560,4871
23048,-13816,5127
23560,-19448,7687
22536,-30456,13575
20744,18184,23303
17416,-3320,-29946
12296,-32248,-14074
5896,2312,6406
-1015,-22521,26629
-7159,29191,-23547
-12023,26375,-14843
-16119,31751,-14331
-18679,-24057,-17915
-19703,-11001,-24571
-20471,519,31750
-20983,10759,23046
-20983,22535,14598
-20215,27399,11782
-16119,-18681,-5114
-14328,-10233,-12794
-13560,-4345,-16634
-12536,263,-18169
-11256,4103,-19193
-9464,9223,-20729
-8184,15879,-23545
-6648,23559,-28153
-4856,31239,30471
-3320,-30201,22535
-2296,-28153,17159
-1272,-26105,12551
520,-23544,7943
2312,-21240,2823
3848,-19448,-1273
5383,-16632,-4089
6919,-13560,-7929
8199,-12024,-12537
8967,-11256,-14585
8711,-9720,-14841
9479,-7160,-15865
10247,-5624,-18169
10503,-5112,-19449
10247,-4088,-19449
10503,-2552,-19705
11271,-248,-22265
11527,264,-23800
11527,1288,-24056
12295,3848,-24824
13575,5896,-26616
14343,6664,-28664
14599,7432,-29432
14343,8712,-29688
14855,10504,-31480
15111,11528,32008
15111,12296,31752
15623,13576,31752
16391,15880,30216
17159,16136,28424
17159,15880,28168
17415,15880,28424
17415,16648,28424
17671,16648,28680
18695,15880,29960
18695,14856,31496
18183,13832,32264
18183,12808,-32504
18183,11272,-31224
18183,9736,-29176
17927,8712,-28152
17415,6152,-25336
17415,5640,-23032
16903,4616,-20216
16647,4104,-17400
15879,4104,-15352
15111,4360,-13560
13831,4616,-11000
12295,2824,-8952
11527,520,-8184
11527,-1272,-7417
11271,-2296,-6649
10759,-3320,-5113
9991,-5624,-4601
9479,-7416,-4345
8711,-7672,-2297
8199,-10744,263
7688,-15608,2055
6920,-18680,4103
6664,-20216,6919
6408,-20472,9479
6408,-20728,10503
6408,-20728,9735
6408,-20984,8711
6408,-20728,6407
6920,-20728,5383
7432,-21240,3079
7688,-21752,3079
7176,-22776,3079
6408,-23800,3079
5896,-25080,4103
5896,-25592,4359
6152,-25848,4615
6664,-25848,4871
6664,-26104,5639
6664,-26872,6407
6664,-26872,6151
6920,-26616,6407
6920,-26360,6663
6920,-26360,6407
7688,-26360,5895
8200,-25592,5383
8456,-23544,5383
10504,-20216,5383
13320,-18936,5127
15368,-17656,5127
17928,-12792,4359
21000,-8952,3079
23304,-10488,3079
23560,-16888,7431
23048,-19448,9479
18184,21768,22535
13576,2312,-31481
8968,-26872,-13818
3336,7688,7174
-3063,-15097,25861
-9463,-28665,-25851
-14071,-31993,-18171
-17399,-25593,-17915
-19191,-14329,-23803
-20727,-1785,32005
-22007,8455,22790
-22519,18439,15366
-22263,28423,6406
-21239,-25849,-4858
-18680,-16377,-13306
-16376,-11001,-17914
-15352,-6905,-19962
-14840,-2297,-21498
-14072,1031,-20985
-11768,5895,-19705
-9464,13575,-20729
-8184,21767,-26617
-6904,28679,30215
-5624,-32761,23559
-5112,-32505,23047
-4856,-27897,11527
-4088,-24825,4103
-2040,-23033,-249
519,-21240,-2297
2567,-17400,-6905
4103,-13048,-12537
6407,-10744,-15865
8199,-9976,-16121
8711,-7672,-16121
8967,-4600,-18169
9223,-4088,-19705
9479,-3832,-19961
9479,-3064,-20473
9223,-1272,-22521
9991,520,-24312
11271,1288,-24824
12039,1288,-24568
12295,3336,-25848
12039,5128,-28664
12551,5128,-29432
13575,5640,-29688
14087,7688,-31480
14343,8968,32008
14343,9224,31240
15111,8968,31752
15623,9736,31496
15879,10504,30472
15879,11272,29960
16135,11016,29960
17159,10760,30984
17671,10504,31496
17415,10248,32008
17159,9480,-32760
17415,8200,-31224
17159,6152,-29688
16647,5128,-28664
16135,4616,-27384
16135,2824,-25592
15623,776,-23800
15623,-760,-22777
14599,-2040,-21241
14087,-4088,-19705
14087,-5880,-17401
13575,-7928,-15865
12807,-9720,-14841
12039,-11000,-12793
12039,-12536,-10745
11527,-14072,-9977
11015,-14584,-9209
10759,-14840,-8441
10503,-17144,-5881
9991,-17912,-5113
9223,-18424,-4345
8711,-19192,-3577
8711,-19960,-2041
8711,-20472,-1017
8199,-20728,-249
8199,-20472,263
8456,-21752,1543
8200,-22776,3079
7944,-22776,3335
7688,-22520,3335
7176,-22520,3847
6920,-22520,3847
6664,-22264,3847
6152,-23032,4359
6152,-23032,4615
6152,-22520,5127
6664,-22264,5127
7176,-21752,4871
7432,-22008,4615
7432,-22008,4871
7432,-22264,5127
7432,-22520,4615
7432,-22520,4359
7176,-22264,4359
7432,-22264,4359
7432,-23032,4103
7944,-21752,3847
8712,-19192,3847
10248,-16376,3591
12296,-12792,4615
14856,-8696,4871
17672,-2808,4871
19976,3592,4872
21256,5128,5128
22024,520,7176
21768,-10488,11783
19208,-28664,19719
15112,12552,32007
11016,-18680,-17402
5896,15112,1542
9,-9976,20485
-6647,-25849,-28923
-12535,-30969,-19451
-16119,-29177,-17403
-18679,-23033,-18683
-20983,-12793,-22779
-22519,-1529,-28923
-22519,1799,-31226
-22775,23815,19462
-22263,-29689,8454
-20471,-17401,-3066
-17656,-8185,-13562
-15864,-2553,-19706
-15352,1287,-21753
-14584,4871,-23033
-12024,9479,-25337
-9720,15111,-28409
-8184,22279,32519
-7928,28167,26631
-6904,30727,19975
-5624,32519,14855
-4856,-30201,11271
-3320,-26873,7431
-760,-24057,3335
2312,-21752,-505
4103,-19192,-3833
3847,-17144,-6905
5127,-15864,-9721
6407,-15096,-11769
6407,-14328,-12793
6151,-13304,-13561
5895,-12536,-14841
5639,-12536,-15609
6151,-9976,-16633
6663,-7928,-17401
7175,-5880,-19193
7943,-4856,-21241
8711,-3832,-22521
9479,-1784,-23289
10247,264,-24568
9991,1032,-26104
10247,2312,-26360
11271,4360,-26872
11783,6408,-27896
12039,7432,-30200
12551,7944,-31480
13575,9224,-31480
13831,10504,-31992
14343,11016,32264
14855,11272,31752
15367,11272,31496
16135,11272,31752
16391,11528,32264
17159,11272,-32760
17159,10248,-31736
17671,8712,-30200
17671,7432,-28664
17671,7176,-28408
17671,4616,-25080
16903,1544,-22776
16135,-504,-20985
16135,-1528,-19193
15879,-3064,-17401
14855,-5624,-16121
13831,-7416,-13817
13575,-8184,-12025
13575,-9976,-11001
12807,-12280,-8953
12039,-14072,-6905
11527,-15096,-5625
11783,-15864,-4601
11015,-17144,-3577
9991,-18680,-2041
10247,-19192,-249
10503,-19448,519
9992,-20472,1543
9480,-21752,2823
9480,-22008,3591
9480,-22008,3847
9480,-22008,4103
9224,-22008,5127
8968,-22520,5639
8968,-22520,5639
8968,-22264,6151
8456,-22520,7175
8456,-22520,7687
8712,-22264,7431
8712,-22264,7687
8712,-22520,7943
8968,-22264,7175
8968,-22264,6919
8968,-22264,7175
9736,-20984,7431
9736,-20984,7175
9736,-20728,6919
9480,-20728,6919
9736,-22520,6919
9736,-22776,6919
9736,-22520,7687
9992,-22264,7943
10248,-22008,7687
10504,-22264,7687
10248,-22264,7943
9992,-22264,8199
10248,-22008,8199
11272,-21240,8199
12808,-18936,8455
13576,-17144,8199
17160,-13816,8455
19976,-10488,8455
22792,-4088,7175
25352,520,5896
27144,264,6152
27144,-7928,9735
25352,-21752,17415
21512,21256,28935
16392,-11512,-20218
10504,17416,1542
4617,-13816,23557
-1527,-31737,-24827
-7415,31239,-16123
-11255,-30969,-14331
-14327,-23545,-17147
-16375,-10233,-23803
-17143,2823,31750
-17399,15111,22790
-16887,27911,14086
-15095,-25849,4102
-12535,-14073,-5882
-10488,-6393,-13050
-9464,-3065,-16378
-8440,1799,-17913
-7928,4615,-19193
-6648,10503,-20217
-5624,15879,-20985
-4344,23047,-24057
-2552,30727,-29689
-1784,-30713,28679
-1272,-30201,23559
-504,-27385,18951
1032,-23288,13063
2824,-19704,8199
5128,-17400,4871
7688,-15608,1799
9224,-12280,-2553
10247,-9464,-7417
10503,-9464,-9721
10503,-8440,-10233
11015,-4856,-10745
12039,-760,-12537
12807,1288,-13048
12807,2824,-13048
12551,6408,-13048
12039,10760,-14584
10759,12040,-16888
10247,12040,-18168
11271,13576,-19192
12039,15880,-20216
14087,18440,-24312
14343,18184,-25592
14599,18696,-25592
14087,18696,-27128
12551,18440,-28920
11527,16904,-28664
11527,14088,-27640
12295,14088,-26872
13063,17160,-26104
13319,17928,-25080
13319,17928,-25336
14343,18440,-26360
14855,19976,-28920
14599,20232,-31736
14855,18184,32520
14855,16136,-32760
14855,15624,-31224
15367,14856,-29432
15879,11784,-27896
15879,8968,-25592
15879,7432,-23288
15623,6152,-21240
15879,3336,-18936
15879,264,-16376
15879,8,-15608
14855,-1528,-13305
14343,-3832,-11513
13831,-6648,-9977
13831,-7672,-8441
13831,-8440,-6905
13575,-9976,-5113
12551,-12536,-3577
12295,-13816,-2553
12039,-13560,-1529
11271,-14072,-505
11015,-16120,775
10760,-17656,2055
11016,-17400,2823
11272,-17400,3591
11272,-18168,4359
11272,-18680,5127
11272,-18936,5639
11016,-18936,5895
11272,-18936,6407
11272,-19704,7175
10760,-20472,7431
10248,-20728,7175
9992,-21240,7687
9992,-21496,8199
9992,-21496,8455
10504,-21496,8711
10504,-22008,8711
10504,-23288,8967
10760,-23800,9479
10760,-22776,9735
11016,-23032,9735
11016,-23032,9479
11272,-22776,9479
11016,-24056,9479
10760,-24568,9991
10760,-23800,10247
11272,-23544,10247
11272,-22008,10247
12296,-20472,9991
14600,-18424,9991
16392,-15864,9479
18696,-11512,8967
22024,-4600,7175
25352,2056,4616
27912,5384,3080
28680,5128,3336
28424,-2808,7431
26632,-16888,15367
22536,24072,27911
21000,14856,32263
12552,17160,2822
6153,-14328,26629
-759,-31737,-20731
-6903,32263,-11771
-10743,-26361,-11515
-13559,-14585,-16891
-15863,-505,-26363
-16887,11783,28422
-16631,23303,18438
-15607,-31737,10246
-14071,-23545,2822
-12023,-14073,-5114
-10232,-6649,-11514
-8952,-2553,-14330
-8184,263,-15097
-7416,4359,-15097
-6648,9223,-15353
-5880,15623,-16633
-4856,22791,-20473
-3576,29703,-26361
-2296,-31225,-32249
-1784,-28921,28167
-1016,-26873,23303
8,-23800,17159
776,-22520,14855
4360,-17400,8967
6152,-14328,5639
7688,-11000,263
9224,-8184,-4089
10247,-8184,-6393
10247,-6904,-6905
10247,-4856,-7929
10503,-3064,-9977
11015,-1784,-11001
11527,-760,-11257
11527,8,-12536
12039,1032,-14584
12551,1800,-15608
13319,3080,-15864
13575,5384,-16888
14087,7944,-19192
14343,8968,-20216
14343,9736,-20472
14343,11272,-20984
14599,12808,-22776
14855,14088,-25080
15111,15112,-25848
15623,15624,-25848
15623,16904,-26360
15879,17672,-27128
16647,18952,-27640
16647,19208,-27384
16647,20488,-27640
17415,20744,-27896
18183,20488,-27896
18183,19464,-27640
18183,18184,-25848
18183,17416,-24312
18183,15368,-23288
18183,13832,-22008
17927,12040,-20728
17671,9992,-18680
17671,8456,-17144
17415,6152,-15864
17159,3592,-13560
16135,1800,-11512
16135,264,-9976
16135,-1528,-8441
15623,-3320,-7161
14855,-3832,-5625
15111,-3832,-4345
15111,-4088,-3065
15367,-4088,-1273
15367,-3064,775
15112,-2040,1287
13064,-1272,3591
12040,-1784,4359
12040,-2296,5127
12040,-2552,4871
12040,-2808,3847
12808,-2808,2311
13064,-4344,2311
12296,-6392,4103
11016,-6904,6151
10248,-8952,7175
10504,-12536,8199
10760,-15352,10247
10504,-16376,13063
10248,-16376,14599
10248,-16376,15111
10248,-16376,15623
9736,-16632,15111
9224,-16376,11527
9224,-16632,7175
9992,-16888,5383
10760,-17400,5639
10760,-17656,5639
10504,-18168,5639
10248,-18680,6151
10760,-19192,7175
11272,-19448,7687
11272,-19448,7943
11016,-19960,7687
11016,-19704,7687
11272,-18424,8199
12552,-15864,8199
14856,-13048,6919
17416,-10232,6151
19720,-7160,5383
22280,-248,3335
25352,5128,1032
27656,5640,264
27912,3080,1800
27144,-6136,6919
25096,-21752,15879
21000,22280,27399
15624,-10744,-21498
10248,22280,-762
4616,-3576,20229
-1271,-21241,-28411
-6903,-24825,-20219
-10743,-18169,-19451
-13303,-7929,-24059
-14583,4359,32518
-15607,7943,28934
-16375,27143,13574
-15863,-28153,4870
-14327,-19449,-3066
-12024,-11001,-11514
-10744,-4089,-18170
-9976,263,-20729
-9208,3591,-21241
-8440,5895,-20985
-7928,10247,-21241
-6392,17415,-22521
-4856,24583,-25337
-3576,31239,-31481
-2552,-29177,26887
-2040,-26361,20487
-1016,-23801,14855
520,-21240,9223
2056,-18936,4103
3848,-15864,7
5384,-12280,-3321
7687,-9208,-7929
8967,-6904,-12281
9991,-4856,-14841
11015,-2552,-15353
11783,-1016,-16633
12039,-760,-17657
11783,776,-19960
12039,2568,-20728
12295,3848,-21496
13063,4872,-23544
13575,6152,-25592
13319,6920,-26104
13319,7944,-26872
14087,9480,-28152
14599,10248,-29432
15111,11272,-29944
15367,12296,-30712
16135,13064,-32248
16391,13576,31752
16647,14088,31496
17159,14600,31496
17927,14856,30728
18439,14856,29960
18695,15112,29960
18951,15368,30472
19207,15368,30728
19463,14856,31240
19463,13576,32264
19463,13320,-31992
19719,13320,-30968
19719,12552,-30712
19719,9480,-28664
19463,8200,-26872
18951,6664,-25336
18695,4872,-24056
18439,2568,-22008
17927,520,-20216
17671,8,-18168
17159,-1272,-16633
16903,-3576,-15353
16647,-5624,-13561
15623,-6904,-12537
14855,-7672,-11257
15111,-9720,-9721
14599,-11512,-8441
13575,-12024,-6905
12807,-13048,-5625
12807,-14072,-5113
12807,-15352,-4345
12039,-15864,-2809
11783,-15608,-1785
12039,-15864,-1017
12039,-16376,-249
11783,-17400,1031
11272,-17656,1031
11272,-17912,775
10248,-18680,1031
9480,-18680,1543
9480,-17400,1543
9736,-16888,1799
9736,-16888,2311
9736,-17400,3079
9224,-17912,3079
8712,-17912,2823
8712,-17656,2823
8968,-17400,3335
8712,-17400,3335
8456,-17144,3335
9224,-16632,3335
9736,-16888,3079
9736,-17144,3079
9480,-17144,3079
9224,-17400,3335
9480,-17144,3335
9480,-16888,3079
9736,-16888,2823
9480,-17656,2823
9480,-17912,2567
9480,-17912,2311
9480,-17912,2567
9736,-17144,3335
10248,-14840,3335
11784,-13304,3079
14344,-10232,3079
17160,-7416,2567
19720,-3320,1543
22024,-1272,775
23816,-3064,1543
24072,-10488,5639
23304,-24568,12551
21256,22024,23303
17928,-248,-28666
13576,-27896,-11514
7944,11528,8710
1545,-8696,27397
-5367,-18425,-25083
-10487,-18425,-18939
-13303,-13305,-19963
-15607,-4601,-25339
-17399,5639,31494
-18167,15623,23558
-18679,26887,16646
-18935,-27641,9222
-18167,-17913,6
-16631,-9209,-8698
-15352,-7161,-10490
-13304,263,-14585
-13048,4103,-15609
-12792,8711,-17913
-12024,14599,-22009
-9976,21511,-27641
-7416,28935,30215
-6392,-31225,21767
-5624,-28153,15623
-4088,-26105,11271
-1528,-23801,7175
776,-21496,3847
2056,-18936,775
3848,-17144,-2297
5895,-14840,-5369
6919,-12280,-9977
7431,-11000,-12537
7687,-10232,-13049
8711,-8184,-13305
9479,-5880,-15353
9479,-4344,-17145
9991,-3064,-17657
10759,-1784,-18425
11527,-504,-20217
11783,520,-22008
11527,776,-22008
11527,2568,-23032
11527,3848,-24824
12039,5896,-27128
13063,7432,-27896
13319,7944,-28152
13063,9736,-29688
13319,11016,-31736
13831,11016,-32504
14343,12040,-32760
14855,13832,31752
15623,14600,30216
16391,15112,29704
16647,15368,29448
16647,15624,29192
16647,15880,29448
16903,15880,29448
17159,15368,29960
17159,13832,31752
17415,12552,32520
17671,11528,-32504
17927,9736,-30968
17671,7432,-28664
17671,5896,-26360
17415,4360,-24824
16647,3336,-24824
15623,-760,-21497
15111,-2296,-19193
15111,-4088,-17657
14599,-5624,-16633
13319,-7928,-15097
13063,-9720,-13049
13319,-10488,-11513
12807,-11256,-10745
12039,-13304,-8953
11783,-15096,-6905
11783,-15864,-5369
11015,-16376,-5113
10503,-17656,-4089
9991,-18680,-2297
9991,-18680,-1273
9991,-18936,-761
9223,-19448,-505
8967,-19960,519
8968,-19960,1287
8712,-19960,1287
8712,-20216,1543
8968,-20216,2055
8968,-20216,3079
9224,-19960,3079
8712,-19960,3079
8456,-19704,2823
8456,-19704,3079
8456,-19704,3079
8456,-19448,3079
8456,-19448,2823
8456,-19448,3079
8456,-19192,3591
8456,-19192,3335
8712,-19192,3079
8456,-19448,3335
7944,-19704,3335
8456,-19704,2823
8968,-19448,2823
9480,-19448,2823
9480,-19192,3335
8712,-19448,3079
8712,-19192,3079
10504,-17656,3079
13320,-14328,3335
15368,-12024,3847
16904,-9464,4103
19976,-5368,3591
22792,-3576,3079
23560,-7160,4871
23304,-10232,6151
20744,29192,18695
17416,6664,30471
12808,-23032,-18938
6664,10248,518
777,-16120,20741
-4855,-30457,-29179
-9719,32519,-20987
-13559,-29177,-19707
-16375,-23801,-21243
-18423,-13049,-26875
-19703,-1529,31493
-20471,9735,23558
-20727,22279,15366
-19959,-29177,5126
-17143,-14329,-6650
-14328,-4345,-15354
-13048,519,-19961
-12280,5895,-22009
-11000,10759,-23801
-9464,15879,-26105
-8184,20999,-28921
-7160,27399,32263
-5624,-30457,25351
-3832,-27129,18951
-3320,-26873,17671
-1272,-24057,10247
-504,-21753,5639
776,-17912,7
2312,-15096,-4345
4103,-14328,-7161
5127,-11768,-10745
6919,-8952,-14329
7943,-7416,-15353
7943,-7416,-15097
8199,-5880,-16377
8967,-3576,-18681
9735,-1528,-20217
9991,-504,-20217
9735,264,-20984
10247,2056,-23288
10759,4360,-25080
11015,4616,-25592
11271,5384,-26104
12039,7944,-28152
12295,10760,-30200
13319,12040,-30456
13831,14344,-30456
14599,18696,-31736
15111,22536,32520
15367,23304,32520
14855,26376,32264
14599,27912,30984
14599,29448,28424
14599,29704,27400
15623,29192,26888
16135,28424,26120
16135,27656,25608
15111,25608,26376
13831,23304,28680
13831,19464,31752
13831,15368,-32248
13831,12296,-29944
13831,8712,-25592
13831,6920,-21752
13831,5640,-20472
12807,3592,-20216
12039,1544,-19192
11783,-760,-18169
12039,-2808,-18937
11783,-4344,-19449
10759,-6136,-18937
10247,-8440,-16377
10247,-9976,-14073
9991,-11768,-13305
9991,-12536,-13561
9991,-14840,-9721
9735,-15864,-7161
9223,-16120,-6393
9223,-16120,-5881
9223,-17400,-4089
9223,-18168,-2041
9223,-19192,-1529
8455,-19704,-1529
7943,-20216,-1273
7943,-20216,519
8456,-20472,775
8456,-20728,7
7944,-21240,7
7432,-21752,1543
7176,-22008,2567
8200,-22008,2567
7944,-22776,1799
6920,-24056,1799
6664,-24056,1799
6408,-23032,1799
7176,-23544,2055
7432,-24824,1799
7432,-25336,1799
7688,-25336,2311
7688,-25336,2567
7432,-25336,2567
7688,-25336,2311
7944,-26104,3079
7944,-26104,3335
7944,-26104,3079
7944,-24568,3079
8456,-23288,3079
9224,-23288,3335
11784,-19960,3079
14344,-16888,3335
16392,-14328,2823
19208,-10488,1799
21512,-8952,1543
23048,-11000,3591
23048,-19704,8967
20488,28680,16903
16648,9224,27911
12808,-16376,-22778
6664,17672,-3578
-248,-9977,17157
-6647,-29433,-30203
-11767,30471,-18427
-15607,-31225,-15099
-18679,-22777,-18427
-20215,-19449,-20475
-21751,2055,29958
-21495,13831,21254
-21751,24327,13062
-20727,-31481,3846
-17655,-19193,-6138
-14840,-9209,-13562
-13560,-4089,-18170
-13560,-761,-19962
-12536,2823,-21241
-10488,7943,-21497
-9208,14087,-22009
-7928,20743,-25593
-6392,27911,-32761
-4344,-30457,24071
-3576,-27129,18439
-2808,-24825,13575
-504,-22009,7431
