10760,-5880,3591
11016,-1272,-1017
10759,4616,-5624
11015,12552,-9976
11527,23048,-13048
12039,-30200,-14072
12039,-17144,-16376
12295,-13048,-17144
13063,8968,-29431
14087,22280,25097
14855,-30200,14857
15111,-22008,7689
16135,-18680,4617
16903,-20984,4617
17671,-31224,7689
17671,16648,13321
17927,-4856,21256
18439,-26616,29192
18439,17928,-27128
18439,-4088,-16377
18183,-21496,-6393
17671,-31480,263
17160,27400,4615
16904,24328,7431
16648,24072,7943
16136,23816,8199
15624,22792,8199
15880,21512,8199
15368,20488,8967
15368,20488,9479
14856,20232,9735
14856,19976,9991
14856,20232,9991
14600,19208,9991
14344,18440,10247
13832,17672,10503
13576,17928,10247
13576,17928,9991
13832,17416,10247
12808,16136,10247
12552,15112,9991
12552,14856,9991
12552,14600,10247
12296,14344,10247
11528,14088,9735
11784,14344,8967
11784,14088,8967
11784,13320,8967
11784,12808,8967
11528,12808,9223
11528,12808,8967
11528,12808,9223
11528,11784,9479
11272,11016,9479
11016,10248,9735
10760,9992,9735
10760,9480,9479
10504,8968,9223
9992,7944,8967
9992,7432,9223
9992,6408,9479
9992,4616,9991
9736,3592,10503
9480,2824,10503
9224,1544,11015
9224,520,11271
9480,264,11271
9224,-504,11782
8968,-1272,12038
9224,-2040,12550
9224,-2552,12294
8456,-2552,12550
7944,-2552,13062
8200,-2552,13574
7944,-2296,13574
7944,-1272,13318
7944,-504,13062
7688,-248,13062
7688,1032,13063
7688,2824,13063
7944,4104,13319
7944,5640,12295
7688,6664,11783
7688,10504,11783
7944,12808,11527
7944,14088,10759
7688,15880,9735
7688,18440,9735
7688,20232,8967
7688,21512,7431
7432,23048,6919
7432,25096,6663
7688,26888,6663
7688,27912,6151
7432,28680,5639
7688,30472,5895
7688,31752,5895
7688,32008,5895
8200,31752,5639
8200,32008,5383
8456,-32760,5383
8456,-32504,5639
8200,-32760,5895
8200,32520,5895
8456,-32760,5895
8456,-32760,5895
8456,32520,6151
8200,32520,6407
8200,32520,6919
8456,32520,6919
8456,32520,7431
8200,32520,8199
8200,32520,8455
8200,32008,8711
8200,32008,8711
8456,32008,8455
8456,32008,8455
8712,32008,8455
8712,31752,8711
8456,31496,8711
8456,31752,7943
8712,31496,7175
8456,32008,7175
8200,-32504,7175
8200,-32504,7431
8456,-32504,7431
8456,-32760,7175
8200,-32504,7175
8200,-31992,7175
8200,-31992,7175
8200,-31992,7687
8456,-31992,7687
8712,-32248,7687
8968,-30968,7687
8968,-30456,7943
8712,-30456,7943
8712,-30456,7687
8712,-29688,6663
8712,-29176,5895
8456,-29176,5383
8456,-29432,5639
8712,-28920,5895
8712,-29176,5639
8456,-29176,5383
8712,-29432,5639
8968,-29688,5639
8712,-29688,5383
8456,-29688,5383
8968,-29432,5639
9480,-29944,5639
9736,-29944,5383
9480,-29944,5383
9224,-29944,5639
8968,-30456,5639
8968,-30712,5383
8712,-30456,5383
8712,-30456,5383
8712,-31480,5127
8712,-32760,5383
8968,-32760,6151
8968,-31736,6663
8968,-31736,6663
8968,-31736,5895
8968,-31736,5639
9224,-30968,5895
9224,-30456,5639
9224,-29944,5639
9224,-30200,5895
8968,-30200,6407
8968,-30456,6151
9224,-30200,5895
8968,-29688,5895
8712,-29688,6407
8712,-29944,6151
8712,-29944,6151
8968,-30200,6407
8968,-29688,6407
8712,-29176,5639
8712,-29176,5383
9224,-29176,5383
9224,-29176,5127
9480,-29176,4871
9224,-28664,4871
9480,-28664,5127
9480,-29176,5127
9224,-29688,5127
9224,-29432,5383
9224,-29176,5639
9224,-29176,5639
8968,-29688,5383
8712,-29944,5127
8968,-29688,5383
8968,-29944,4871
8712,-30456,4103
8968,-30200,4103
9224,-29944,4359
9224,-30200,4359
9224,-30712,4359
9224,-31480,4615
9480,-31992,4615
9480,-31992,4103
9224,-31992,4103
9224,-31992,4103
8968,-31480,4103
9224,-31480,4359
9224,-31480,4615
8968,-30968,4615
8712,-30456,4615
8968,-30456,4359
8968,-30456,4359
8968,-30200,5127
8968,-30200,5639
9224,-30200,5895
9224,-30456,5383
9224,-30712,4615
9224,-30456,4615
9480,-30200,5127
9480,-30456,5639
9224,-30712,5639
9224,-30712,5639
9224,-30200,5383
9224,-29944,5383
8968,-29944,5383
9224,-30200,5383
8968,-29944,5127
8968,-29944,5127
9224,-30200,5127
9224,-30200,4871
9224,-30200,4871
9224,-29944,5127
8968,-29944,5127
9224,-30200,4871
9480,-30200,4615
9480,-30200,4615
9224,-29944,4615
9480,-30456,4103
9224,-30968,3847
9224,-31480,3847
9480,-31480,3847
9224,-30712,3847
8968,-30712,4103
8968,-30712,3847
9224,-30968,3847
9224,-30712,3591
8968,-30456,4359
9224,-30456,4871
9480,-30200,5127
9480,-29944,5127
9224,-29688,5383
9224,-29688,5639
9480,-29432,5895
9480,-29688,5895
9224,-29944,5383
8968,-29944,4871
9224,-29432,5127
9224,-28920,5127
9224,-28664,4871
8968,-28664,4871
8968,-28664,5127
9224,-28408,5127
9224,-28664,5127
8968,-28408,5383
8712,-28408,5127
8968,-28408,4615
9480,-28664,4615
9480,-28920,5383
9480,-29688,6663
9480,-31480,7431
9480,-31480,7431
9224,-24568,4103
9224,-10232,-5625
9223,8200,-23544
9479,29448,18952
10759,-16888,-3576
11270,-7160,-21240
12038,-4600,-31992
12550,-8184,31752
14086,-16888,-29432
15110,-24568,-20728
15110,-30200,-9976
15366,25096,2056
15879,10760,16904
16391,5896,22280
16135,-19960,-16121
16135,-28920,-4089
15879,-31736,1543
15624,32008,4359
14856,31496,6151
14600,31496,6663
14600,30728,7175
14088,30216,7943
13832,30216,8455
13576,29960,8967
13576,29960,8967
13576,29960,8967
13320,29704,9223
13064,29704,9479
12808,29704,8967
12552,29960,8967
12808,29704,8711
12808,29448,9991
12808,29704,10759
12552,29704,10503
12040,29192,10247
11784,29192,9991
11784,29192,10503
11784,29448,11527
11272,29192,11527
11272,28936,11015
11272,28936,11015
11272,28936,11527
11016,28424,11527
11016,28168,11783
11272,27912,11527
11016,26888,12295
11016,26376,13063
10760,26120,13319
10504,26376,13063
10504,26120,13063
10248,26120,13063
9992,26888,13063
9736,27400,13319
9736,27144,13575
9480,27400,13575
9224,27656,14087
9224,27912,14087
8968,28168,14087
8968,28424,14087
9224,28680,14343
9224,28936,14343
8968,29192,14855
8968,29704,16135
9224,29704,16391
9224,29960,16135
9224,30216,16391
9224,30984,17671
8712,31240,17927
8456,31240,17671
8200,31496,17927
8456,32264,18183
8712,-32504,18183
8200,-32248,18439
7944,-31480,18695
7944,-30200,18951
8456,-29432,18695
8456,-28920,17927
8200,-28408,17415
8200,-27384,17159
8456,-26616,16647
8456,-25848,16391
8456,-25336,15879
8712,-24824,14855
8968,-24056,14599
8712,-23544,14087
8200,-23800,13319
8456,-23032,12551
8456,-22520,12039
8712,-22264,11527
8712,-22008,9479
8712,-22008,8711
8968,-21752,8455
8968,-21752,7687
8968,-21752,6919
8968,-21752,6663
8968,-22264,6407
9480,-22520,6407
9480,-22520,5895
9224,-23032,5639
9224,-24056,5895
9224,-24568,5639
9224,-24824,5383
9480,-24824,5383
9480,-25336,5383
9224,-26360,6151
9224,-27128,6663
9480,-27128,7175
9480,-27640,7431
9480,-28152,7687
9480,-28920,8455
9480,-28920,8711
9736,-28920,8967
9736,-29176,8967
9480,-29432,9735
9480,-29944,10247
9736,-30200,10503
9480,-29944,10759
9224,-29944,10759
8968,-30200,10503
8712,-30200,10247
8712,-30456,9991
8968,-30712,9479
8968,-30968,9479
8712,-31224,9223
8712,-31480,9735
8968,-31736,10247
8968,-31480,10247
8968,-31736,10247
8968,-31736,10247
8968,-30968,9991
9224,-30712,8967
9224,-30968,7687
9224,-30968,7431
9480,-30968,7687
8968,-30712,6663
8968,-30712,5895
8968,-29944,5895
8712,-29688,5895
8712,-29688,5639
8712,-29944,5639
8712,-30200,5639
8712,-30456,5895
8968,-29944,5639
9224,-29432,4871
9480,-29176,5127
9480,-28920,5127
9480,-28920,4871
9224,-29432,4615
9224,-29688,4871
9480,-29688,4615
9224,-29688,4103
8968,-29944,3847
8968,-29432,4615
8712,-29176,5639
8968,-29176,5383
8712,-29432,5127
8456,-29432,5127
8712,-29176,5895
9224,-29176,5895
9224,-29176,5895
9224,-29176,5639
9480,-29432,5127
9480,-29688,5127
9224,-29944,5127
9224,-30968,5383
9480,-31224,5895
9480,-30968,5895
8968,-30456,5895
8968,-29944,5639
9224,-29944,5383
8968,-29944,5383
8712,-29944,5639
8712,-29944,6407
8968,-30200,6151
8712,-29688,6151
8456,-28920,6151
8968,-29176,5895
9480,-30968,6407
9480,-32248,7175
9224,-30200,6919
9224,-19960,7
9480,-3576,-13049
9479,16904,-32248
9735,-27640,11272
11015,-11000,-10232
12294,-3832,-26616
12806,-4088,31496
13318,-11256,32520
13830,-14328,-31992
15366,-28152,-18680
15622,31752,-8440
15878,21256,5384
16135,8200,21256
16903,-6136,-28409
16647,-19960,-13817
16391,-27896,-2297
16391,-30968,3079
16136,32264,4871
15368,32264,5639
15368,32264,6407
15112,30984,7431
14856,29704,7431
14344,28936,7431
13832,28168,8199
13832,27656,9479
13832,27400,9223
13320,27400,8967
13064,27912,9991
13320,28168,9991
13064,28168,10503
12808,28168,10503
12552,27912,10759
12808,27400,11271
12552,27656,11527
12040,27912,11783
11784,27656,11783
11784,27400,11527
11528,27656,11271
11272,27912,12039
10760,27656,12807
10504,27144,13319
10504,27144,13575
10504,27144,13575
10248,27400,13575
9992,27400,13319
10248,27400,13831
10248,28168,14087
9992,28936,13831
9992,28680,14087
9992,28424,15111
9992,28424,15623
9480,28424,15623
9480,28680,15367
9480,28936,15111
9224,28680,15111
8968,28680,15367
8712,28680,16135
8712,28936,16391
8712,28680,16647
8456,28424,17159
8456,28424,17159
8712,27912,18439
8712,27656,18951
8712,27400,19207
8456,27912,19207
8200,27656,19975
8456,27656,20743
8456,27656,20743
7944,28168,20487
7944,28680,20743
7944,28680,20999
7944,28680,20743
7432,29448,20743
7432,29960,20999
7432,30728,21511
7432,30728,21511
7176,30728,20231
7432,32008,19975
7688,-32760,19207
7688,-32504,18183
7432,-31992,16647
7432,-31224,15623
7688,-30456,14599
7688,-30200,14087
7432,-29944,11783
7432,-29944,11015
7688,-29688,9991
7432,-29688,8967
7432,-29688,8455
7176,-29688,8455
7176,-29432,8455
7432,-29432,7943
7432,-29176,7687
7176,-29176,7431
6920,-29176,6919
7176,-29176,6407
7432,-29176,6407
7688,-29432,6151
7944,-29688,6663
7944,-30200,6919
7688,-30456,7431
7432,-31224,7687
7688,-31736,7687
7688,-32248,7431
7432,-32504,7943
7176,-31992,8967
7432,-31992,9479
7432,-31992,9735
7432,-32248,9479
7176,-32760,9479
7432,32520,9735
7176,-31992,9735
6920,-31736,9735
7432,-31992,10503
7688,-32248,11015
7688,-32248,10759
7432,-31992,11015
7432,-31992,11015
7688,-31992,10503
7432,-32248,10247
7432,-32248,9223
7176,-31992,8967
6920,-31992,9223
7176,-31992,9223
7176,-31992,8199
7176,-32248,7431
7176,-31992,7687
7432,-31992,7687
7432,-32248,7687
7432,-31736,7175
7432,-31480,7431
7688,-31224,8199
7688,-31224,8199
7432,-30968,7943
7432,-30712,7431
7688,-30968,6919
7432,-31224,6663
7176,-30968,6407
7176,-31224,6663
7432,-30968,6663
7432,-31992,6663
7176,32520,6919
7176,32264,7175
7432,-32504,7175
7432,-32248,7175
7432,-32248,6919
7432,-31992,6663
7432,-31736,7431
7688,-31992,7943
7432,-32760,7687
7176,-32760,7687
7176,-32504,7943
6920,-32504,7943
6920,-32504,7687
6408,-32760,7431
6408,-32760,7431
6664,-32248,7431
6664,-31736,7431
6408,-31224,7431
6408,-30712,7431
6408,-30968,7175
6408,-31224,6919
6664,-30968,6919
6920,-30968,6919
7176,-31224,6919
7176,-31224,6407
6920,-30712,6151
6920,-30456,5639
7176,-30200,5639
6920,-29944,5895
6664,-30200,5895
6664,-30456,5895
6920,-30456,5639
6920,-30200,5383
6664,-29944,5127
6664,-29944,5127
6664,-29944,5127
6920,-29944,5127
7176,-29944,5383
7176,-30712,5127
7432,-31992,5127
7432,-32504,5895
7176,-32248,5895
7176,-31992,5895
7432,-31480,5639
7432,-31224,5383
6920,-31480,5127
6920,-31736,5639
6920,-31992,6407
6920,-31992,6151
6664,-31992,6151
6664,-31736,6151
6920,-31736,6151
6664,-31992,6407
6664,-31736,6407
7176,-31224,6407
7432,-31480,6407
7432,-31736,6407
7176,-31992,6407
7176,-31992,6151
7176,-31480,6151
7432,-31224,5895
7432,-31224,6151
6920,-31480,6151
6920,-31480,6151
7176,-31224,6151
6920,-31224,6407
6664,-31224,6663
6408,-30968,5895
6664,-30456,5895
7432,-30200,6151
7176,-29944,6151
7176,-29688,5895
7176,-30456,6151
7176,-30456,5895
7432,-30200,5639
7432,-30200,5895
7432,-30200,5639
7432,-30712,5127
7176,-30712,4871
6920,-31480,5127
7176,-32248,5127
6920,-31736,4871
6664,-31224,5127
6664,-31480,5639
6920,-31224,5895
6664,-30968,6151
6920,-31480,5895
6920,-31480,5639
6920,-31224,5639
6920,-31224,5895
7176,-31480,6151
7176,-31480,6151
6920,-31224,5895
7176,-31480,5639
7176,-31992,5383
6664,-31992,5127
6408,-31736,5383
6408,-31224,5639
6408,-31224,6151
6664,-31480,6407
6664,-31224,6407
6664,-31224,6407
6664,-31224,6407
6664,-30968,6151
6920,-30968,5895
6920,-31224,5895
6664,-31224,6407
6664,-31224,6407
6920,-30456,6407
6920,-29944,5895
6664,-29432,5383
6408,-29944,5127
6664,-29944,5383
6664,-29688,5639
6152,-29944,5639
6152,-29176,5895
6408,-28920,6151
6152,-29176,6407
6408,-29944,6151
6408,-30200,5383
6408,-30456,5127
6408,-29944,4871
6664,-29688,5127
6664,-29432,5639
6408,-29176,6151
6408,-29432,6407
6664,-29688,6407
6664,-29688,6407
6664,-29688,6151
6664,-29688,5895
6408,-29944,6151
6408,-30456,5895
6152,-30712,5383
6152,-30968,5127
6664,-30968,5383
6664,-31480,5383
6664,-31992,5127
6920,-31736,4871
7176,-32504,4871
7176,32264,5383
7176,32008,5127
7176,32008,5127
7176,31752,5383
7432,30472,5127
7432,29960,4871
7176,29704,4871
7176,29192,5383
7176,28936,6407
7432,29704,6919
7176,29960,6663
7176,30472,6407
7432,30728,6407
7688,29960,6663
7432,29960,6407
7688,30216,6407
7944,29448,6407
7944,28680,6663
7688,28424,6663
7688,28424,6663
7944,27400,6919
7944,26632,7943
7688,27400,7687
7944,-30712,3079
7944,-16632,-7673
7687,-504,-25081
8711,15112,19464
9991,29192,-760
9990,-31992,-6648
11014,-25848,-23288
12038,-27896,-23800
13318,30472,-18680
14086,24840,-9976
14342,19720,1544
14343,9224,14856
14855,-3320,29191
15111,-17400,-22009
15111,-30200,-8441
14599,29192,1799
14088,26888,6919
13832,25864,8455
13832,25352,9735
13064,24328,10759
13064,23560,11015
13064,23560,11015
12808,23560,11271
12808,24328,11783
12040,24840,11783
12296,24840,11783
12040,24584,12039
11784,25608,12039
11272,26632,12039
11016,27400,12551
11272,27400,12807
10760,27400,12295
10248,27656,12039
9736,27912,12039
9992,27912,12295
9736,27400,13063
9224,27656,13319
8968,27656,12551
9224,28424,12039
9224,29448,12295
8712,29960,13063
8712,30472,13319
8712,31240,13575
8712,32008,13575
8200,-32760,14087
7944,-32504,14343
7944,-31736,14343
7944,-30968,13831
7688,-30712,13831
7176,-30456,13831
7432,-30200,13831
7176,-30200,14855
6920,-30200,15111
6664,-29944,15111
6664,-29944,15367
6920,-30200,15623
7176,-30200,15623
6920,-30200,15879
6920,-30456,15879
6920,-30712,15879
7176,-30968,15879
6920,-30968,16903
7176,-30968,17927
6920,-30968,18183
6920,-31224,17927
6664,-31480,19207
6408,-31224,20231
6664,-30968,20999
6408,-30968,20999
6152,-30968,21255
6152,-30712,22023
6408,-30456,22279
6664,-30200,21511
6408,-29944,20743
6408,-30200,20999
6664,-30200,21767
6664,-29688,21511
6408,-29176,21511
6408,-29176,20743
6664,-28664,20487
6664,-28152,20487
6152,-26872,19463
6152,-26616,18183
6408,-26360,17415
6408,-25336,17159
6408,-24824,16647
6152,-24568,15367
6408,-23800,14343
6152,-23544,13575
5896,-23544,12807
6408,-23544,12039
6920,-23288,11527
6920,-23032,11015
6664,-23288,10503
6920,-24056,9735
6920,-23800,9223
6920,-23800,9223
6920,-24056,9223
6664,-25336,8711
6408,-25848,7687
6664,-25592,7431
6664,-25848,7431
6408,-25848,7943
6408,-26360,8711
6408,-27128,9223
6408,-27128,9479
6664,-27384,9479
6664,-27896,10247
6664,-28408,11015
6664,-29176,11271
6920,-29176,11527
6664,-29432,12295
6408,-30200,12551
6408,-31224,12807
6152,-31224,12807
6408,-30968,13319
6408,-31224,13575
6408,-30968,13575
6408,-30712,13575
6408,-30456,13063
6152,-30456,13063
6152,-30712,13063
6408,-30712,13319
6408,-30712,13319
6152,-30968,12551
6152,-31224,12551
6152,-30712,12807
6152,-30712,12807
6152,-30456,12551
6152,-30200,12551
5896,-30200,12295
5896,-30456,12039
5640,-30456,12039
5896,-30456,11015
5896,-30456,10759
5640,-30712,10503
5640,-30968,10759
5896,-30712,10247
5896,-30712,9735
5640,-30712,9735
5896,-30712,9479
6152,-30712,9223
6152,-30456,9223
6408,-29432,9223
6408,-28664,9223
6152,-28664,8967
6152,-29176,8967
6408,-29688,8711
6408,-29688,8199
5896,-29432,7943
5896,-29432,8199
6152,-29944,7943
6152,-30200,7175
6408,-31224,7431
6152,-30968,7431
6152,-31224,7431
6152,-31224,7431
5896,-30968,7431
6408,-30712,7943
6408,-30456,8199
6152,-30968,8711
6408,-30712,8967
6408,-30712,8199
6408,-30712,7687
6408,-30456,7687
6408,-30456,7687
6152,-30968,7431
6152,-30968,7431
5896,-31224,7943
5896,-31224,8455
5896,-30968,8455
6152,-30968,8199
6408,-31224,8199
6152,-30968,8199
6152,-30968,8455
6664,-31224,8455
6920,-31224,8455
6664,-31480,8199
6152,-31224,8199
6408,-30968,7943
6408,-31224,7943
6408,-31480,8455
6408,-30968,8455
6152,-30456,8455
6152,-30456,8199
5896,-30200,7687
5896,-29688,7687
6152,-29432,7687
6408,-29176,7687
6152,-28920,6919
6152,-29176,6663
6408,-29176,6663
6664,-29688,6919
6408,-29944,7175
6408,-29944,7175
6408,-29688,6663
6408,-30200,6407
6152,-30200,6407
6408,-30200,6407
6152,-30456,6663
6152,-29944,6407
6408,-29432,7175
6408,-29432,7175
6152,-29432,7431
6152,-29432,7431
6152,-28920,7431
6152,-28408,7687
6408,-28664,7687
6664,-28664,7943
6920,-28920,7943
6920,-28920,8199
6664,-28152,8199
6408,-28408,8199
6664,-28408,7687
6664,-28152,7431
6152,-28408,7431
6152,-28664,7687
6408,-28664,7431
6408,-28664,7175
6152,-28152,7175
6408,-27384,7431
6664,-27128,7431
6664,-27128,7431
6920,-27128,7687
6664,-27128,7943
6664,-27384,7943
6920,-27384,7943
6920,-27384,7687
6664,-27384,7175
6664,-27384,7431
6920,-28152,7175
6664,-29688,7431
6408,-25592,5383
6408,-12792,-2809
6407,3848,-17912
6919,22280,27144
7943,-26360,6408
8967,-14840,-11768
9478,-11512,-22776
10246,-12792,-25336
11270,-20728,-21240
12038,-28152,-12536
12550,-32504,-2296
12806,25352,8712
13063,13576,22536
13319,776,-27896
13575,-12536,-13817
13319,-21496,-2297
12807,-25592,4615
12296,-28152,7943
12296,-28920,9735
12040,-28664,10503
11784,-29432,11015
11528,-30200,11783
11272,-29944,12039
11528,-29688,12039
11784,-30712,12551
11016,-31224,13319
10760,-31224,13575
11016,-31224,13575
11016,-30968,13319
10248,-30456,13063
9736,-30200,13063
9736,-29944,12807
9736,-29944,12807
9736,-30200,12807
9480,-30200,13063
9224,-30456,13831
8968,-30712,13831
8968,-30968,14087
8968,-30968,14599
8968,-31736,14855
8456,-32504,14599
8456,-32504,14599
8712,-32760,15111
8712,-32504,15367
8200,-32504,15623
8200,-32504,15623
8200,-32760,15879
8200,-32760,15879
7688,-32504,15367
7432,-32504,15623
7688,-32504,16135
7432,-32248,16647
7176,-32248,16391
7176,-32248,15367
7432,-32248,15367
7432,-32504,16135
7176,-32248,16391
7176,-32504,16647
7432,-32760,17159
7432,-32504,17415
7432,-32248,17927
7176,-32760,18183
6920,32520,18951
6920,-32760,19463
6920,-32504,19975
6408,-32760,20231
6408,-32504,19975
6408,-32504,19975
6408,-32248,20743
6152,-32504,21511
6152,-32504,21511
6408,-31992,21255
6408,-30968,21511
6152,-30968,21767
6152,-31224,21255
6152,-30200,20743
6152,-29176,20999
6408,-29432,20743
6152,-29432,20231
6408,-29176,20231
6408,-29176,19463
6152,-29176,18951
5896,-28664,18695
6152,-27128,18183
6152,-26360,17159
5896,-26616,16391
5896,-25848,16135
6152,-24824,15623
5896,-24824,13575
6152,-24824,12039
6152,-25080,12295
6152,-25336,12295
6152,-25336,11271
6408,-25080,10503
6408,-24824,10503
6664,-24824,10503
6664,-25848,9991
6152,-26104,9735
6152,-26360,9479
6408,-26104,9991
6408,-26104,10503
6152,-26360,10247
6152,-26616,9735
6408,-26872,9735
6408,-26872,9991
6408,-26872,10247
6408,-26872,10247
6664,-26872,10247
6664,-27384,10503
6664,-27384,10503
6408,-27640,10759
6408,-27384,11015
6664,-27384,11015
6664,-27384,11271
6152,-27128,12039
6152,-27128,12295
6408,-27640,12295
6408,-28152,12295
6152,-28408,12295
6152,-28920,11527
6408,-28920,11527
6408,-28920,11271
6408,-28408,11015
6408,-27896,10759
6664,-27896,11015
6664,-27896,11271
6408,-28152,11783
6408,-28408,11527
6664,-28408,11015
6664,-28408,11271
6408,-28408,10759
6408,-27896,10247
6408,-27896,9991
6408,-28408,10247
6408,-28664,10503
6152,-28408,10759
6152,-27896,10759
6152,-28152,10503
6152,-28152,10247
6408,-27896,11271
6664,-28152,12039
6408,-27640,12039
6408,-26872,11783
6408,-27128,11783
6664,-27384,11271
6664,-27384,11015
6920,-27384,10759
6920,-27128,10759
6920,-26872,11015
6408,-27128,10503
6408,-27384,9991
6408,-27128,9735
6408,-27128,9735
6408,-27640,9991
6664,-27896,9991
6920,-27896,9735
6920,-28152,9735
6920,-28920,9991
7176,-30456,9991
7176,-30456,9735
7432,-29944,10247
7432,-30200,10247
7176,-29944,9735
7176,-29688,9479
6920,-29944,9479
7176,-29688,9223
7176,-29688,9479
6920,-29944,9479
6920,-29944,9735
7176,-29176,8967
7432,-29432,8455
7176,-29432,8711
6920,-29176,8711
7176,-29176,8711
7688,-29688,9223
7432,-29688,9479
7176,-29688,9479
7176,-29944,9223
7688,-29944,9479
7432,-29432,9735
7688,-29176,9735
7688,-29176,9735
7688,-29688,9735
7176,-29432,9991
7432,-29432,9735
7176,-28664,9479
6920,-28664,9479
7432,-28920,9223
7688,-29176,9223
7432,-28920,8967
7176,-28664,8967
7688,-28408,9479
7944,-28408,9223
7944,-28408,8967
7688,-28664,8967
7688,-28920,8711
7944,-29688,9223
7944,-29944,9223
7688,-30456,9223
7432,-30712,9223
7688,-30968,9223
7688,-30712,9223
7688,-30968,9223
7432,-30712,8711
7176,-30712,8455
7432,-30712,8455
7944,-30712,8199
7944,-30712,8455
7944,-30456,9223
8200,-30712,9223
8200,-30200,8967
7944,-29688,8711
7944,-29944,8455
8200,-29944,8455
7944,-29944,8711
7688,-29688,8455
7688,-29688,8711
7944,-29688,8967
7944,-29688,8967
7944,-29176,8711
7944,-28408,8711
7944,-27896,8967
7944,-28152,8967
8200,-28408,9223
8456,-28408,9479
8712,-28664,9479
8712,-27640,9479
8456,-27128,9223
8456,-27128,9223
8456,-27384,9479
8456,-27640,9991
8200,-27384,10247
8200,-27640,10503
8456,-27896,10503
8456,-27384,10503
8200,-27128,10247
8200,-27128,10247
8200,-27896,9735
8200,-29432,9735
8712,-29944,9991
8712,-29944,9991
8968,-29944,10503
8968,-29432,10503
8712,-28920,10247
8712,-28920,10247
8968,-28920,10247
8968,-28920,9991
8456,-29176,9991
8456,-29176,9223
8712,-29176,8711
8712,-29688,9223
8456,-30712,10247
8456,-29688,10503
8712,-22008,6151
8712,-6392,-5369
9479,11784,-23288
10247,31240,20488
10759,-17144,-1272
11782,-8184,-17656
12806,-6392,-26104
13574,-11768,-26104
14086,-20472,-19960
14598,-27128,-10744
15366,-32248,-248
16134,22792,12296
15879,9224,27656
15623,-4856,-22265
15879,-18424,-7929
16135,-26360,2311
16136,-29176,7687
15624,-30712,10247
15112,-30968,11271
15112,-31992,12039
15112,-32504,12551
15112,32008,13319
15368,31240,13319
14856,30472,13831
14088,29960,14343
13832,29704,14855
13832,29704,14855
13832,29448,15623
13832,29192,16391
13320,29448,16903
12808,29448,17415
12808,29704,17159
12552,29192,16903
12808,29192,16903
13064,29192,17159
12808,29192,16903
12296,28936,17159
12552,28936,17415
12552,28680,17671
12552,29192,16903
12552,29192,16391
12296,29192,16391
11784,29448,16391
11528,29448,16391
11528,29448,16647
11528,29448,17159
11784,29448,17159
11272,29704,16903
11016,29960,16903
11016,29960,17159
11016,29704,16903
10760,29960,16647
10760,30472,17159
11016,30216,18183
11016,29960,18439
11272,30216,18439
11016,30472,18439
10760,30472,18695
10760,30728,19463
10504,30728,19975
10504,30728,20231
10248,29960,20487
9992,29704,20743
9992,29448,20999
9992,29192,21511
9992,28936,21767
9736,28936,22023
9736,28936,22535
9480,29192,22791
9480,30216,23559
9736,30728,24071
9736,30728,24071
9480,30984,24071
9480,32264,23559
9480,-31992,23047
9480,-31736,23047
9480,-31736,23047
9480,-30968,23047
9736,-29944,23047
9224,-29688,23047
8968,-29176,22279
8968,-28152,21255
8968,-26872,20487
9224,-26616,19463
9480,-26616,18439
9736,-25848,17159
9480,-24568,15879
9224,-24824,15623
9480,-24824,15111
9992,-24568,13063
9992,-24568,12039
9736,-24312,12039
9480,-24056,11783
9480,-24056,11015
9480,-24312,10759
9736,-24824,10759
9736,-25336,10759
9736,-25592,10247
9736,-26104,9479
9992,-26360,9735
10248,-27128,9991
10504,-27640,10247
10248,-28408,10759
9992,-29688,11527
10760,-30200,11527
11016,-30456,11271
11272,-30712,11271
10760,-31480,11527
10760,-31736,11527
10760,-32248,11527
11016,-32760,12039
10760,32008,12807
10504,32008,13063
10504,32008,13575
10248,32008,14087
10248,32008,14855
10504,32264,15623
10760,-31736,16647
11016,-29688,17415
10760,-27384,17671
11016,-26360,18183
11272,-20984,18439
11272,-16120,18439
11272,-10232,15879
11528,-5368,11271
12040,-1784,6663
12296,3592,2056
12296,12552,-1528
12551,23816,-3320
13319,-30712,-4856
13831,-17144,-8696
14343,-3320,-15608
15111,9480,-25847
16391,21768,28425
17159,30728,19209
17927,-29944,13833
18695,-29176,11273
19463,28680,11017
19975,14856,13577
20231,-6136,20232
20487,-29688,30216
20487,14344,-24824
20743,-8440,-14073
20999,-29432,-3577
20487,23816,4871
19720,21000,6919
19464,12040,12551
19464,11016,13575
19208,11016,14599
19208,10760,14855
18440,10504,15111
18184,9224,14855
18440,8200,15111
18440,8712,15367
17928,9224,15623
17416,9224,15367
17416,9224,15367
17416,8968,15111
17160,9224,15623
16392,8968,15623
16392,7432,15623
16648,5896,15367
16392,5896,15623
15880,5640,15879
15624,5640,16135
15368,4360,16391
15624,3336,16647
15880,3336,16647
15368,3336,16903
14856,2824,16647
14856,2312,17159
14856,1544,17415
14856,1288,17159
14856,1288,17415
14856,1032,17927
14856,776,18695
14088,8,18695
13576,-1272,18438
13576,-1272,18438
13576,-1016,18950
13320,-2296,18950
13320,-3832,17670
13064,-5112,17158
12808,-5624,17414
12808,-6648,18438
12552,-7416,18694
12808,-8184,18694
13064,-8184,18950
12552,-8440,19718
11784,-9464,20230
11784,-9720,20486
12040,-9720,20742
11528,-10232,20486
10760,-11000,20742
10760,-10744,20742
10760,-10744,20742
10504,-10232,20742
10760,-8952,20998
9992,-7928,20998
9992,-6648,20742
9736,-5368,19974
9736,-3576,20230
9992,-1784,20230
9992,8,19463
10248,2568,18695
9992,4872,18439
9992,7176,18439
9736,9736,18183
9480,12296,17415
9736,14856,16391
9736,17160,15879
9224,19208,15879
9224,21000,16135
8968,23560,15111
9224,25608,14343
8968,27144,14599
8712,28424,14599
8968,29960,14343
9480,31240,13575
9224,31752,13575
9224,31752,13831
9480,32520,13319
9480,-31736,12551
9224,-30968,11783
9224,-30200,11527
9480,-29176,10759
9224,-28408,10503
8968,-27896,10503
8968,-27896,10247
9224,-27640,10247
8968,-26872,10247
8712,-26104,10503
8968,-25848,10503
9224,-25592,10247
9224,-24824,10247
8968,-24824,10759
8968,-24568,11015
9224,-24056,11015
9224,-23544,11271
8968,-23032,11527
8968,-22776,11527
8968,-22008,11271
8968,-21240,11015
8712,-20216,10247
8456,-19960,9479
8456,-19960,9735
8712,-19960,9991
8712,-19448,9479
8456,-18680,9479
8456,-18680,9479
8712,-18680,9479
8968,-18168,9735
8968,-17912,9735
8968,-17912,9479
9224,-17656,9479
9224,-16888,9479
8968,-16888,9735
8968,-16888,9479
8968,-16888,8967
9224,-17656,8967
8968,-19192,9223
8968,-20472,9479
9224,-20472,9479
9224,-20728,9223
8968,-20728,9479
9224,-20728,9735
9480,-21240,9479
9224,-21752,9479
8968,-22520,9735
9736,-22776,9479
9992,-23032,8967
9736,-24312,8711
9992,-24312,8967
9992,-24056,8967
10248,-24312,8455
9992,-25080,8455
10248,-25848,8711
10504,-25848,8711
10248,-26104,8967
9736,-26104,8711
9992,-26104,8711
10248,-26104,8711
9992,-25848,8455
9992,-25592,8199
10760,-25592,7687
10760,-25848,7687
10760,-26360,8199
10760,-26104,8455
11016,-26104,8455
11016,-26104,8455
10760,-26104,8455
10760,-26360,8199
11016,-26104,8455
11016,-26104,8711
10760,-26360,8455
10760,-26104,8455
10760,-25848,8967
11016,-25848,9223
11016,-26104,8711
11016,-26360,8199
11016,-27128,8711
11272,-27384,9223
11528,-27384,10503
11272,-27384,10503
11272,-26616,10247
11528,-26360,10247
11784,-26104,10247
11784,-25592,10503
12040,-25080,10503
11528,-25080,10503
11272,-25336,10247
11272,-25080,9479
11272,-24824,9223
11528,-25080,8967
11528,-25336,8967
11272,-25336,8711
11272,-25848,7687
11784,-26872,7175
11784,-27896,7431
11784,-27640,7943
11784,-27896,8199
12040,-28152,7943
12040,-28408,7943
12040,-28664,7687
12040,-29432,7431
12296,-29944,7175
12296,-29688,7431
12296,-29688,7431
12296,-29688,7687
12040,-29688,7431
12040,-29688,7687
11784,-29432,7431
12040,-28920,7431
12296,-28664,7175
12296,-28664,7175
12296,-28920,7175
12296,-28152,8199
12552,-27896,8199
12552,-28152,8199
12296,-27896,8455
12296,-27384,8967
12552,-25848,9479
12552,-25336,9735
11784,-25592,9479
11528,-24824,8967
11528,-24312,8967
11528,-24056,8967
11528,-23800,8967
11272,-23032,8967
11272,-22520,8711
11528,-22264,8711
11528,-22008,8967
11272,-22264,8967
11272,-22520,8711
11528,-22520,8455
11528,-22264,8711
11272,-22008,8711
11528,-21752,8455
11272,-21752,8455
11016,-21752,7943
11016,-21752,7687
11016,-20728,7175
10504,-20216,7175
10504,-20216,7687
10504,-19448,8199
10504,-18168,7943
10248,-17144,7687
10248,-16888,6151
10504,-16888,4615
10504,-16376,4359
10248,-16376,4103
10248,-16632,3847
10504,-17144,4103
10504,-17400,4103
10504,-17656,3847
9992,-16632,4359
9992,-15608,5127
9992,-15096,4871
9736,-14584,5127
9480,-13304,5127
9224,-12280,5383
9480,-11768,5127
9480,-11512,3847
9224,-11256,3335
9224,-11256,3079
9224,-11256,3847
9224,-11512,4359
9480,-11768,4103
9480,-12024,4103
9736,-11768,4615
9736,-11768,4615
9224,-12024,4359
9224,-12792,4359
9480,-13304,4359
9224,-13048,4103
8968,-13048,4615
8968,-13816,4871
9224,-14328,4871
9224,-15096,5127
9224,-15352,5127
9224,-15864,5127
9480,-16632,5127
9224,-17144,5895
9224,-17400,5895
9736,-17912,5639
9992,-18680,4871
10248,-19192,4615
9992,-19704,4359
9736,-20216,4359
9736,-21240,3847
9736,-22008,3847
9992,-22264,3847
9992,-22776,4103
10248,-23544,4615
10248,-23800,4615
10248,-23800,4103
10248,-24056,3335
9992,-24568,3591
10504,-24568,4103
10760,-24568,4359
11016,-24824,4615
11272,-24824,5127
11272,-25336,5383
11528,-25336,5127
11272,-25336,5383
11272,-25592,5639
11528,-25336,5895
11272,-25848,6407
11016,-26360,6151
11016,-26616,6151
11016,-26104,6407
11016,-25592,6407
11528,-25592,6151
11528,-25848,6151
11528,-25848,6663
11528,-25848,6919
12040,-26360,6663
12040,-26872,6663
11784,-26872,7175
11784,-26872,7175
11784,-27128,6919
12040,-26872,7175
12040,-26872,7431
12296,-26872,7687
12040,-27128,7431
12040,-27128,7431
11784,-27128,7943
11784,-26616,8199
11528,-26104,7943
11784,-26104,7943
11784,-26616,6919
12040,-26872,6407
12552,-27128,6663
12808,-27128,6663
12808,-27640,6151
12808,-27384,5895
12552,-27128,5895
12552,-27384,6407
12552,-27128,6151
12296,-26872,5895
12040,-27896,6407
12040,-29176,6919
11784,-27896,6919
11784,-19960,3335
11784,-4600,-7673
12551,14088,-25336
13319,-30968,17928
13831,-12792,-4088
14854,-2040,-21752
15878,264,-30967
16390,8,-32503
17414,-11512,-27128
17926,-18424,-18424
18694,-25336,-7160
18950,28680,5640
18951,14344,21512
18695,-1528,-27641
18951,-16632,-12281
18695,-24824,-761
18695,-27384,5127
18440,-28408,7431
17928,-29176,8455
17928,-30712,9223
17928,-31992,9991
17672,-32504,10759
17416,32520,12039
17160,32264,12807
17416,32264,12807
17416,32264,12807
16904,32520,12807
16648,32264,12807
16648,32008,13063
16648,32008,12551
16136,31752,11783
15624,31240,11527
15624,31496,11271
15624,32008,11271
15624,32008,11527
15112,32008,11271
15112,32008,10759
14856,32008,10759
14856,32264,11271
15112,32520,11783
15112,32264,11783
14856,32264,11527
15112,32520,11527
15368,32264,11527
14600,32264,11527
14344,32264,11527
14344,32520,11783
14344,32520,11783
14344,32520,12039
14088,-32760,12295
14088,-32760,12807
13576,32520,13063
13576,32264,13063
13832,32520,13575
13832,32264,13831
13576,32008,14087
13576,32520,14343
13320,32520,14343
13320,32520,14855
13576,-32760,15367
13320,-32760,15879
13064,-32504,16135
13320,-32504,16903
13576,-32760,17671
12808,-31480,18439
12552,-31480,18439
12552,-31736,18439
12552,-32248,19207
12808,-31992,19463
12808,-31992,19975
12808,-31224,19719
12552,-29944,20743
12552,-29688,21255
12296,-28920,21511
12296,-28664,21511
12296,-27384,21255
12552,-26104,20487
12552,-25592,19719
12552,-24824,18951
12808,-23800,18951
12296,-23032,18695
12040,-22520,17927
12040,-22008,17671
11784,-20472,16903
11784,-19192,16135
11784,-18424,15111
12040,-17656,14343
12296,-17144,14087
12296,-16376,13063
12296,-15864,11783
12808,-15608,11015
12808,-15352,10759
12808,-14584,9991
12808,-14328,8967
13064,-14840,8199
13064,-15352,7943
13320,-15608,7943
13320,-16120,7687
13064,-16632,7431
13064,-17400,7431
13320,-18424,7175
13320,-19192,7175
13064,-19704,6919
13320,-20728,7943
13576,-22008,8967
13576,-23544,9479
13832,-24568,9223
13576,-24824,9735
13576,-25592,11015
13832,-26104,11015
13832,-26616,11271
13576,-26616,11271
13320,-27128,11271
13576,-27384,12295
13320,-27384,13319
13064,-27128,13575
13064,-27128,13319
13064,-27384,13575
13064,-27128,13319
12808,-27128,13575
12808,-27128,13063
12808,-27128,12807
12808,-27128,12807
13064,-27128,12551
13064,-27128,12551
13320,-26616,11783
13320,-26360,10759
13064,-26104,10247
12808,-26360,9991
13064,-26616,9735
13064,-26616,9991
12808,-26360,10247
12552,-25592,9991
12808,-25080,10247
12808,-25336,10247
12552,-25592,9735
12552,-25592,9479
12552,-25592,9735
12552,-25080,9479
12808,-24568,9223
12808,-24824,9479
13064,-24824,9735
13064,-25336,9223
12808,-25592,9223
12808,-25848,9223
12808,-26872,9223
12808,-27640,9479
12296,-28152,9479
12296,-28152,9479
12296,-28152,9479
12296,-28408,8711
12296,-27640,8455
12040,-26616,8711
12040,-26872,8967
12040,-26872,8711
11784,-27640,8455
12296,-27640,8455
12808,-27640,8455
12808,-27384,8967
12808,-26360,8711
12296,-25848,8199
12040,-25848,8199
12296,-25848,8199
12296,-25848,8199
11784,-25848,8199
11784,-25336,8199
11528,-24568,7943
11528,-24312,7175
11784,-24312,6407
11784,-23800,6151
11528,-23800,6151
11528,-23800,6151
11784,-23800,5639
12040,-24056,5639
12040,-24056,5127
11784,-24312,5127
11784,-24568,5383
12040,-24568,5383
12040,-24824,4871
11784,-25080,4615
11784,-24824,4871
11784,-25080,5383
11784,-25336,5127
12040,-26360,5127
12040,-26360,4871
12040,-26360,5895
12040,-27128,6407
12296,-28152,6407
12040,-28664,6407
12040,-28408,6407
12552,-28408,6663
12808,-28408,6407
13064,-28152,6407
12552,-28152,6663
12552,-28152,7175
12296,-27896,6919
12296,-27896,6663
12552,-28664,7175
12808,-28664,7687
12808,-28408,7687
12296,-28152,7431
12552,-28152,7175
12552,-28152,7175
12296,-28664,6919
12296,-28664,6919
12808,-28664,6919
12808,-28664,6663
12808,-28408,6919
12808,-28664,6919
13064,-28664,6663
13064,-28920,6407
12808,-29432,6407
13064,-29944,6663
12808,-29688,7431
12552,-29432,7943
12808,-29688,7687
12808,-29688,7431
12552,-29176,7431
12552,-28664,7687
12808,-28664,7687
12808,-28920,7431
12808,-29176,6919
12808,-28664,6919
12808,-28152,7431
12808,-28408,7943
13064,-29176,7687
13064,-29688,7687
13320,-29944,8711
13064,-30456,9735
12808,-30968,9735
12552,-30968,9479
12808,-30712,9479
12808,-30712,9479
12296,-30712,8455
12296,-31224,7943
12552,-32248,7943
12552,32264,8711
12808,-32248,8711
12552,-23288,4359
12296,-6648,-6905
13063,13576,-26360
13575,-30968,16136
14599,-12536,-5880
15110,-1784,-23544
16134,-760,-32248
17158,-6904,-32248
17926,-17144,-26104
18182,-24056,-16632
18438,-28920,-6648
19462,25352,5896
19719,11016,21000
19463,-3320,-28409
19207,-17400,-13305
19719,-26616,-1785
19719,-29944,4359
19720,-31480,7175
19208,-31992,7687
18952,-31992,7943
18696,31752,8967
18952,30984,9991
18696,30984,10503
18184,30984,10503
17928,29960,10503
17928,29960,11015
17416,30216,11527
17160,29704,11271
16904,28936,11527
16904,28168,11783
16904,27912,12551
16648,28168,12807
16392,28680,13063
16136,28936,13831
16136,28936,14087
16136,28680,14087
16136,28680,14087
15880,28936,14343
16136,28680,14343
16136,28424,14343
15368,28680,13575
15112,28936,13319
15368,28936,13831
15368,28680,14343
15112,28680,14343
14344,29192,13831
14088,29192,13575
14600,28936,14087
14856,28168,14343
14600,28168,14599
14344,28680,14599
14344,28680,14343
14344,28680,13831
14600,28936,13575
14344,29448,13575
14088,29960,13575
13832,30216,14087
13576,30472,14599
13832,30472,14855
13576,30728,15111
13320,30472,15623
13064,30728,16135
13064,30984,15879
12808,30728,16135
13064,30472,17159
13064,30472,17671
12808,30984,18183
12808,31496,18695
13064,31240,19207
13064,31240,19463
13320,31240,19975
13320,31496,20231
12808,31496,20999
12808,32264,21511
12808,-32248,21767
12808,-31992,22023
12808,-31480,21767
12552,-30712,20999
12296,-30200,20231
12040,-29688,20231
12040,-29176,20231
12552,-28920,19463
12552,-27896,18439
12552,-27128,17671
12552,-26872,16647
12552,-26104,14599
12808,-25336,12807
12808,-25080,12039
13064,-24824,11527
13064,-24568,10503
13064,-24824,9223
12808,-24824,8455
12808,-24568,8199
13064,-24824,7687
13064,-25080,7431
12808,-25336,6407
12808,-25336,5895
12552,-25336,5895
12808,-25848,5383
13064,-26872,4871
13064,-26616,4871
13320,-26616,5383
13064,-27384,5383
13064,-27640,5383
13320,-27128,6151
13320,-26872,6663
13576,-26872,7431
13576,-27384,7687
13064,-28664,8199
13064,-28920,9223
13064,-28664,10247
13064,-28920,10247
13064,-29176,9991
12808,-29176,9991
12552,-28664,10247
12808,-28664,10759
13320,-28920,10759
13320,-28920,10759
13320,-28664,11015
13576,-28664,11015
13576,-28920,10759
13320,-28664,10759
13320,-28664,11015
13576,-28408,11015
13320,-27640,11015
13064,-27640,11015
13064,-27640,11271
13064,-27640,11015
13064,-27640,11015
13064,-27896,10503
13064,-28152,9735
13320,-27896,9479
13064,-27640,9223
12808,-27896,8711
13320,-27896,8199
13576,-27640,7687
13320,-27640,7943
13576,-27640,8199
13576,-27896,7175
13320,-27896,7175
13320,-28152,7431
13320,-28408,7687
13320,-28408,6663
13064,-28408,6151
13064,-28408,6151
13320,-27896,6151
13320,-28152,6407
13064,-28408,6407
13064,-28408,6407
13576,-28408,6407
13576,-28408,7175
13320,-28664,7687
13320,-28408,7687
13576,-27896,7431
13832,-26872,7175
13576,-26872,7687
13832,-27384,8199
14088,-27384,8455
13576,-27384,8199
13064,-27384,7943
13064,-27128,8199
13320,-27128,8199
13320,-26872,7687
13064,-27128,7431
13064,-27128,7431
13320,-26616,8455
13576,-26360,8711
13576,-26872,8455
13832,-27384,8199
13576,-27384,7943
13832,-26360,7687
13832,-26104,7943
14088,-26360,7943
14088,-27128,8199
13832,-27384,7943
13576,-27384,7943
13576,-27384,7687
13576,-27384,7431
13576,-27640,7175
13320,-27384,6919
13320,-27128,7175
13320,-27128,6919
13320,-27128,6151
13576,-27128,5383
13832,-27384,5639
13832,-27640,5383
13576,-27640,5127
13576,-27128,5127
13832,-27128,5127
13832,-27896,4871
13832,-28408,4871
13832,-28408,5383
13576,-28152,6407
13320,-28408,6407
13576,-28408,6407
13576,-28152,6407
13576,-28408,6407
13576,-28408,6407
13576,-28408,6407
13320,-28152,6407
13320,-28664,6663
13576,-28664,7431
13832,-28920,7431
13832,-28920,7687
13576,-28408,7431
13576,-27896,6919
13576,-27896,6919
13576,-27896,6919
13832,-28152,6663
13576,-28408,6407
13320,-27640,6407
13320,-27640,6407
13320,-27640,6151
13576,-27640,5383
13576,-27896,5639
13576,-27640,5895
13576,-27640,5895
13832,-27640,6151
14088,-27384,6151
13832,-27384,6151
13832,-27384,5895
13576,-27384,5895
13576,-27128,5639
13576,-27384,5895
13576,-28408,5895
13320,-29432,6151
13320,-29688,6407
13576,-26360,4359
13576,-15864,-2553
13575,776,-17144
13831,18696,28680
14599,-30456,7688
15623,-18680,-10488
16390,-13816,-22520
16902,-15096,-25592
17926,-22264,-23288
18438,-30456,-15864
18694,30216,-6648
19206,24328,4104
19463,13064,16648
19719,-760,31239
19463,-14072,-18937
19719,-23288,-5881
19207,-27384,1543
18952,-29176,3335
18696,-30968,7431
18952,-30968,8199
18696,-30968,8967
18440,-31736,10247
18184,32264,11271
18440,32520,12039
18184,32264,12807
17928,32264,13063
17928,32008,13319
17672,31752,13831
17928,31752,14087
17416,31752,13575
17160,32008,12551
16904,32264,11783
16904,32520,11015
16648,32520,10503
16392,32520,9991
16392,32520,9735
16648,32264,9479
16392,32520,9479
16136,-32248,9991
16136,-31992,10247
16392,32520,9991
16392,31752,10247
16136,31496,9991
16136,31752,10247
16392,32008,10503
16136,32008,11015
15624,31496,11527
15624,31496,11783
15624,31240,11527
15624,31496,12295
15112,31496,12551
15112,31496,12807
14856,31752,13063
15112,31752,13063
15112,31752,13575
14856,31240,13575
14600,31240,13319
14856,31240,13831
15112,31752,14599
14856,32008,14855
14856,32264,14599
15112,32008,14855
15112,32008,15879
14600,32008,16647
14600,32008,17415
14600,32008,17671
14344,32264,18183
14088,32264,18695
14088,32520,19719
14088,32520,19975
14088,-32760,20487
13832,-32504,20999
13832,-31736,21255
13832,-31224,21511
13832,-30456,21767
14088,-30200,22023
14088,-30200,21255
14344,-29688,19207
14088,-28664,17927
13832,-28152,17415
13832,-28152,16391
13832,-28152,15367
13832,-27384,14599
13576,-26360,14087
13576,-25848,13831
13832,-25592,12295
13832,-24824,11015
13576,-24312,10503
13832,-24056,10247
14088,-24056,9223
13832,-24056,7943
13832,-24312,7431
14344,-24312,7175
14600,-24056,6663
14600,-24056,6407
14344,-24312,5383
14344,-24312,5127
14344,-24824,5383
14344,-24824,5383
14344,-25592,5383
13832,-25848,5383
13576,-25848,5383
13832,-26104,5895
14088,-26872,6919
14344,-27128,7175
14600,-27128,7431
14344,-27128,7175
14088,-27384,7175
14600,-27128,7943
14856,-27128,8455
14856,-27128,8199
14856,-27640,8199
14600,-27896,8967
14600,-27896,10247
14600,-28152,10503
14600,-28152,10503
14344,-28152,11015
14088,-28152,11527
13832,-27384,11271
14088,-27128,10503
14344,-27384,9735
14344,-28152,9735
14088,-28408,9479
14344,-28152,9479
14344,-28152,9223
14600,-28152,8967
14600,-27640,8967
14344,-27128,8967
14344,-27384,8711
14600,-27384,8199
14600,-26360,8199
14600,-25848,7943
14600,-25848,7943
14344,-26104,7687
14344,-25848,7431
14600,-25848,7431
14600,-25848,7431
14856,-25848,7431
14600,-25848,6919
14600,-26104,6663
14600,-26104,6919
14344,-26360,7431
14600,-26104,7943
14856,-24312,8967
14856,-22008,9223
14856,-20728,9991
14600,-18936,10503
14856,-15352,11015
14856,-11512,11015
14856,-8184,8967
14600,-4600,5127
14600,264,776
15112,6408,-3320
15367,12296,-7672
16135,19976,-10744
16135,30472,-11512
16647,-23800,-11768
17415,-12024,-14584
17927,-1016,-20728
18183,9992,-30199
18695,21768,25353
19719,29448,18185
19975,31752,14089
20231,30216,13833
20743,22792,15881
21255,8712,19721
21511,-10744,26632
21767,-16376,28936
21767,18696,-23544
21511,776,-14840
21511,-14584,-6393
21511,-24824,263
21512,-30712,4615
21000,31752,6663
20744,29960,7687
21000,29448,7431
20744,29192,7175
20232,28936,7943
19976,28424,8455
19976,27656,8455
19720,27656,8199
19208,27912,8455
18952,27400,8455
18952,26632,8711
18696,26376,8711
18696,26376,8967
18184,26376,9479
18184,26632,9735
18440,26120,9991
18184,26120,9735
17928,25096,9223
17928,25096,9479
18184,25352,9479
17928,24840,8967
17672,24584,8711
17416,24328,8711
17416,24072,8967
17160,23816,9991
16648,22792,10247
16392,22024,9735
16648,22024,9479
16392,21256,9735
16136,20232,10247
15880,19464,10503
16136,19208,10503
15880,18952,10247
15624,18440,9223
15624,18184,8967
15880,18184,8967
15880,17672,8967
15624,16904,8967
15368,16392,8967
15112,16136,9223
15112,15368,9223
15112,14600,9223
14600,13320,10247
14344,12552,10503
14600,12296,10503
14600,11784,9735
14088,10760,9735
14088,10248,9735
14088,9736,9991
14088,8968,10247
13832,8200,10247
13832,8200,10247
14088,8456,9991
14088,8456,10247
13576,8712,10503
13576,9736,10247
13576,11016,10503
13576,11272,10759
13064,12296,10503
13064,13832,10247
13064,15880,10247
13064,17160,9991
13064,18440,9479
12808,20232,9223
12808,22536,9223
12808,23560,8967
12552,24584,8967
13064,26120,8967
13576,27656,8967
13576,27912,8967
13576,28424,9223
13320,29448,9223
13320,30984,8967
13320,32008,9223
13320,32264,8455
13064,-32760,8199
13064,-31224,7943
12808,-30456,7687
12808,-30200,7943
13064,-29944,8199
13064,-29688,8455
12808,-28920,8455
13064,-28664,8711
13064,-28408,8711
13320,-28664,8967
13576,-28664,8711
13320,-28664,8455
13320,-28664,8967
13576,-28664,9223
13576,-28664,9223
13576,-28664,9223
13576,-28664,9223
13320,-28408,9479
13320,-28408,9735
13576,-28152,9223
13576,-27384,8455
13576,-27128,8711
13320,-26872,8967
13064,-26616,8967
13320,-26616,8967
13832,-26104,8711
13832,-25592,8455
13832,-25848,8455
14088,-26104,8455
14088,-26360,8199
13832,-26616,8199
13832,-26104,8455
14088,-25848,8455
14088,-27128,8199
13576,-27896,8711
13576,-27640,9479
13832,-27128,9991
13832,-26872,9991
13576,-27128,9479
13832,-27128,8967
14088,-27128,8967
14088,-27384,8967
13832,-26360,8455
13832,-25848,8199
13832,-26104,8199
13832,-26104,7943
14088,-25592,7687
13832,-25336,7431
14088,-25592,7175
14088,-26360,7175
13832,-26104,7175
13576,-25592,6919
13832,-25592,6919
13832,-25336,6919
13832,-25336,6407
13832,-25080,6407
14088,-25080,6663
13832,-25080,6919
13576,-25080,6663
14344,-24824,6151
14600,-25080,5383
14600,-25080,5639
14600,-24824,5895
14344,-24568,6407
14600,-24824,6663
14600,-25336,6407
14600,-25336,6151
14344,-25080,5895
14088,-24824,6151
14344,-24824,6407
14344,-25080,6407
14088,-25848,5639
13832,-26616,5639
14088,-26872,5895
14600,-27128,6663
14344,-27128,7175
14088,-26616,7175
14344,-26360,7175
14856,-26360,7175
14600,-26360,7431
14856,-26360,7175
14856,-25848,7175
14856,-25848,8199
14344,-25848,9223
14344,-25336,9479
14600,-25080,8455
14600,-25080,8199
14344,-25336,7943
14344,-25848,8199
14600,-25592,8199
14600,-25080,8455
14600,-25080,8199
14600,-25080,7687
14856,-24824,7687
14856,-25080,7431
14856,-25336,7687
14856,-25080,7687
14856,-25080,7175
14856,-25080,6407
14600,-25336,6407
14344,-25080,6407
14600,-25080,6663
14600,-24824,6663
14600,-24568,6919
14344,-24824,7175
14600,-24824,6919
14344,-25592,6663
14088,-25848,6919
14600,-26104,6919
14856,-25848,6663
14600,-25848,6663
14344,-25592,6663
14856,-26360,6919
15112,-27128,6919
15112,-26872,6919
14600,-26872,6919
14600,-26616,6919
14600,-26104,6919
14600,-25848,7175
14600,-25848,6919
14344,-26104,6663
14344,-26104,6663
14344,-25848,7175
14344,-25592,7687
14344,-25848,7687
14600,-25592,7943
14856,-24824,7687
14600,-25080,7687
14600,-25336,7943
14856,-25336,7431
14856,-25080,7431
14856,-25336,7175
14856,-25336,7175
14856,-25336,7431
14600,-25592,7175
14600,-25080,6407
14856,-24824,6407
14856,-24568,6407
14600,-24568,6407
14600,-24568,6151
14600,-24824,5895
14600,-25080,5895
14856,-25080,5639
14856,-24824,5383
14600,-25080,5127
14600,-26616,5639
14600,-27640,6407
14856,-27384,7175
14856,-23032,5127
15112,-11512,-3065
15111,5384,-18424
15111,23560,26888
15367,-25080,5640
16647,-13048,-13048
17926,-8696,-24312
17926,-9208,-26616
18182,-16888,-22520
19718,-25080,-14072
20742,-29944,-4344
20998,28424,6920
20999,16392,20488
20743,1800,-30200
20999,-12024,-15865
21255,-21496,-3577
20999,-25848,3847
20232,-28408,7175
19720,-29176,8199
19464,-28664,8711
19720,-28920,9735
19976,-29688,10247
19208,-31480,11015
18696,-31224,11527
18696,-30968,12039
18952,-31224,12295
19208,-31224,12551
18696,-31736,12295
18184,-31992,12295
18184,-31992,12551
18440,-32248,12807
18184,-32248,12039
17928,-31992,11783
18184,-32248,12039
18184,-32248,11783
17416,-32248,11783
16904,-32248,11783
17160,-31992,11527
16904,-31992,11271
16904,-32504,11527
16904,-32504,12551
16904,-32248,12807
16648,-32504,12807
16648,-32760,13063
16904,-32760,12807
16904,-32504,12807
16648,-32504,12807
16392,-32760,13063
16648,-32760,13575
16392,-32504,13575
16136,-32504,13831
15880,-32504,14343
15880,-32504,14855
15624,-32248,15111
15368,-32248,14599
15368,-32248,14343
15624,-32248,14343
15624,-31992,14855
15368,-31736,15623
15368,-31736,15879
15368,-31224,15623
15624,-30968,15879
15624,-31224,16391
15112,-31224,17159
15112,-30712,17415
15368,-30456,17671
15368,-30712,18183
14856,-30456,19207
14600,-30200,19463
14856,-30200,19463
14600,-30200,19463
14344,-29944,19719
14344,-29432,20487
14600,-29176,20487
14600,-28664,20743
14344,-28152,20743
14344,-27384,19975
14600,-26872,18951
14344,-26104,18695
14600,-24824,18695
14600,-24568,17927
14600,-24312,16391
14600,-23800,15879
14344,-22520,16135
14344,-21752,15623
14344,-21240,14599
14344,-20216,13575
14344,-19448,12551
14088,-19192,12039
14088,-18680,11271
14088,-18680,10759
14088,-18936,10247
14344,-18424,9735
14600,-18168,8967
14856,-18680,8455
15112,-19192,8711
15368,-19192,8711
15112,-18936,7943
14856,-19448,7687
14856,-19960,7943
14600,-20472,7943
14600,-20728,7687
14344,-20984,7943
14600,-22008,8199
14600,-22520,7943
14344,-22520,7687
14344,-22776,8455
14600,-23032,8967
14856,-24056,8967
15112,-24824,8967
14856,-24824,9735
15112,-25080,10503
15368,-25592,11015
15368,-25592,11271
14856,-25592,11015
14856,-26104,11015
14856,-26104,11015
14600,-25848,11783
14344,-25848,12039
14600,-25848,12039
14600,-26104,11783
14344,-26104,11783
14344,-26360,12039
14600,-26616,12039
14600,-27384,11783
14344,-27384,11527
14344,-26872,11015
14600,-26360,10759
14856,-25592,10247
14600,-25336,9735
14600,-25080,9735
14856,-24824,9735
14856,-25080,9735
14856,-25080,9223
14856,-25080,9223
14600,-25080,9223
14600,-24824,8967
14600,-24824,8455
14856,-25080,8199
14344,-25336,8455
14344,-25080,8711
14344,-25336,8455
14344,-25336,7943
14600,-25080,8199
14856,-25592,7943
14600,-25848,7687
14600,-25336,7943
14856,-24824,7943
14856,-25080,7943
14600,-24824,8455
14344,-24568,8711
14600,-24568,7943
14600,-24824,7687
14344,-25080,6407
14600,-24824,6151
14856,-25080,6407
14600,-24824,6151
14344,-24056,5639
14344,-24056,5383
14856,-24056,5639
14856,-24312,6663
15112,-24824,6663
15368,-25592,6663
14856,-25592,6919
14856,-25592,6919
14600,-26104,6919
14600,-26104,6919
14600,-26104,7687
14600,-26104,7687
14344,-26104,7431
14344,-25336,7175
14600,-25080,7175
14600,-25336,7175
14344,-25336,6919
14344,-25080,6407
14344,-25080,6407
14856,-25336,6663
14856,-25336,6663
14600,-24824,6663
14600,-24824,6151
14856,-24824,6407
14856,-24568,6407
15112,-24824,6407
15112,-25080,6151
14856,-25336,6151
14600,-25080,6663
14856,-25080,6407
14856,-25848,6407
14856,-26104,6407
14600,-26104,6407
14600,-26104,6663
14856,-25848,6663
14856,-25848,6407
14856,-25848,6663
14856,-25848,6407
15112,-25848,6151
15112,-26104,6151
14856,-25848,6407
14856,-26104,6407
14600,-26360,6407
14856,-25848,6407
14600,-26104,6407
14600,-25848,6407
14600,-26104,6919
14600,-26616,7175
14344,-26616,7175
14344,-25848,6663
14600,-25336,6407
14344,-25592,6663
14600,-25592,6663
14600,-25080,6407
14344,-25336,5895
14600,-25336,5383
14856,-24824,5639
14600,-24824,5895
14344,-24824,5639
14344,-25080,5639
14600,-24824,5639
14600,-24824,5639
14600,-25080,5895
14600,-26616,5895
14344,-27384,6151
14344,-27128,6663
14088,-19960,3335
14344,-5624,-6649
14855,13064,-24056
15623,-32504,19976
16135,-15096,-760
16902,-5880,-18680
18182,-4856,-27896
18694,-8696,-28920
19206,-18424,-23032
19462,-27128,-14328
19974,-32248,-4088
20486,24584,7688
20743,11784,22024
20743,-2296,-28153
20999,-16632,-13561
20231,-24312,-2041
19975,-27384,5127
20232,-29688,8199
20232,-31224,8967
19720,-31736,9223
19208,-31992,10247
18952,-32760,10759
18952,-32760,10759
18952,-32760,10759
19208,-32504,10759
18952,-32760,11015
17928,-32760,10759
18184,32264,11271
18440,32520,12039
17928,-32504,12039
16904,-32248,12039
17160,-32248,12039
16904,-32504,11783
17160,-32248,11783
17416,-31992,11783
16904,-31992,11783
16648,-31992,12295
16648,-31992,12807
16648,-32248,12551
16648,-32248,12807
16648,-32248,12807
16392,-32248,13063
16136,-31992,13319
16136,-32248,13063
16392,32520,12807
15880,-32760,12551
15112,-32504,12551
15368,-32504,13063
15368,32520,13319
15368,-32760,13063
15624,-32504,12807
15112,-32248,13319
14856,-32504,13831
14856,-32248,14599
14856,-31992,14855
15112,-32248,15111
15112,-31992,15367
14856,-32504,15623
14600,32008,15879
14856,32264,16135
15112,32264,17159
14856,32264,17927
14088,32008,17927
14088,32008,17927
14344,32264,18439
14088,32264,18951
13832,32008,19463
13320,32264,19975
13320,-32760,20487
13320,-32504,20999
13832,-32504,21255
14088,-31736,21255
14088,-31480,21255
13576,-30968,20743
13320,-30712,20487
13320,-30712,20743
13320,-30200,20743
13320,-29432,20743
13320,-28664,19975
13320,-28152,19463
13064,-27640,18695
12808,-26616,17671
12808,-25848,16647
12808,-25592,15111
13064,-25080,14343
13064,-23800,13319
13064,-23800,12039
13064,-23800,10759
13320,-23288,10247
13576,-23288,8967
13320,-23032,8199
13320,-23288,7687
13576,-23032,7175
13576,-22776,6663
13576,-23032,6151
13576,-23032,6151
13320,-24056,6151
13320,-24824,6151
13064,-25080,5895
13064,-25592,5895
13320,-25848,6151
13320,-26104,7431
13320,-26104,7687
13320,-26104,7687
13576,-26104,7687
13576,-27128,7943
13320,-27640,8199
13320,-27640,8455
13576,-27896,8711
13576,-27384,8967
13576,-27384,9223
13576,-27384,9223
13320,-27640,8967
13320,-27384,9479
13320,-27384,10247
13320,-27640,9991
13064,-27896,9735
13064,-28152,10247
13064,-28408,10503
13064,-27896,10503
13320,-27896,10503
13320,-27640,10247
13064,-27896,9991
13064,-27640,9991
13320,-27640,10247
13320,-27896,9991
13320,-27896,9223
13320,-27128,9223
13064,-27384,8711
13064,-27384,7943
13064,-26872,7175
13064,-26616,6919
12808,-26616,7175
12808,-26104,6919
13064,-26104,6919
12808,-26104,6919
12552,-26360,6407
13064,-27384,5639
13576,-27896,5383
13320,-28152,5895
13320,-27384,6407
13064,-26872,6407
13320,-26872,5895
13064,-26872,5895
13064,-26872,5895
12808,-27128,5895
13064,-26872,5895
12808,-26104,5895
12808,-26104,5639
12552,-26104,5639
12552,-25848,5895
12552,-26104,6151
13064,-26616,6151
13064,-26872,6151
13320,-26872,5895
13064,-26360,5895
13320,-26104,5639
13320,-26360,5639
13576,-26360,5639
13320,-26616,5895
13320,-26872,6407
13064,-26872,6663
12808,-26872,6919
12552,-26872,6663
12552,-27384,5639
12552,-27384,5383
12808,-27640,5639
12808,-27384,6407
12808,-27128,6407
12808,-27384,6407
13064,-27640,6151
13064,-27128,6407
13320,-26872,6663
13320,-26872,6151
13320,-27128,5895
13064,-27384,6151
13064,-28152,6407
13320,-28152,6407
13064,-27896,6151
12808,-27640,5639
12808,-27128,4615
13064,-26360,4103
13064,-26360,4359
12808,-26360,4615
12808,-26104,4615
12808,-25848,4871
12808,-25592,4871
13320,-25592,4871
13320,-26104,4871
13064,-26104,4871
13064,-26360,4871
13320,-26360,4871
13320,-26360,4615
13320,-26104,4871
13320,-26104,4615
13064,-26104,4871
13064,-26104,5127
12808,-26360,4871
12808,-26616,4359
12808,-26616,4359
13064,-26360,4615
13064,-26360,5127
12808,-26360,5383
13064,-26616,4615
13320,-27384,4615
13320,-27640,4871
13064,-27640,5383
13064,-27384,5383
13320,-26872,5383
13320,-26872,5639
13320,-26872,5895
13320,-26616,6407
13064,-26872,6663
13064,-26872,6407
12808,-27128,6151
12808,-26872,5895
13064,-27384,6151
13064,-27896,6919
12808,-27896,6919
13064,-27128,6407
13320,-26872,6151
13320,-26872,6407
13064,-26872,6151
13064,-26616,6151
13320,-26360,6407
13320,-26360,6151
13064,-26360,5895
13064,-26360,5895
13064,-25848,5895
13064,-25848,5895
12808,-25592,5383
12808,-25592,5383
13064,-25848,5639
13064,-25592,5639
12808,-25336,5383
13064,-25848,5639
13064,-25592,5383
13320,-25848,5127
13320,-26104,4615
13320,-25848,4103
13320,-25848,4103
13576,-26104,4359
13832,-26104,4615
13576,-25848,4615
13064,-25592,4871
13320,-25848,4871
13576,-26104,4359
13320,-26104,4359
13064,-25848,4359
13064,-25848,4359
12808,-25848,4615
13064,-27128,5639
13320,-27384,6151
13320,-27384,5895
13064,-27128,5639
13320,-27384,5383
13320,-28152,5127
13576,-27896,5639
13320,-27128,6151
13576,-26616,5895
13832,-26616,5639
13064,-26616,5895
12808,-26616,5895
12808,-26872,5383
13064,-26872,4615
13064,-27128,4871
12808,-26872,5383
12808,-26360,5895
13064,-26616,5895
13064,-26360,5639
12808,-25848,5383
13064,-25592,5383
13064,-25848,5383
13320,-26616,5383
13320,-26616,5127
13064,-26104,5127
13064,-25336,5127
13064,-25336,5127
13064,-25592,4103
12808,-25336,3847
12808,-25336,4103
12808,-25592,4103
12808,-25336,3847
12808,-25336,4103
12808,-24824,4103
13064,-24568,3847
13320,-24824,3591
13064,-24568,3335
13320,-24568,3335
13576,-24312,3591
13576,-24312,3847
13320,-24312,3847
13576,-24824,3847
13832,-25592,4103
13320,-25848,4871
13064,-25848,4871
13320,-25848,5127
13064,-25080,5127
13064,-25080,4871
13320,-25336,4615
13320,-25336,5383
13320,-25592,6151
13320,-25848,6151
13576,-25848,5639
13832,-25592,5127
13576,-25592,5127
13576,-26104,5639
13832,-26360,6151
13576,-26104,5895
13320,-26104,5383
13064,-26104,5383
13320,-25848,5383
13320,-25848,5383
13064,-26360,5639
13064,-26360,4871
13320,-26104,4615
13320,-26104,4615
13320,-26360,5127
13064,-26616,5383
13064,-26104,5383
13064,-26360,5127
12808,-27896,5383
13320,-28920,5383
13320,-29176,5127
13064,-10744,-5881
13063,8200,-20728
13831,28424,24072
14599,-17912,1544
15367,-4600,-18168
15878,8,-30455
16902,-2296,31752
17926,-10744,-30456
18438,-19192,-22520
18694,-24312,-11768
19206,31752,8
19975,16136,14344
19975,776,30472
20231,-12792,-18425
20231,-22008,-5369
19719,-26360,1799
19720,-28664,4615
19720,-29176,6407
19208,-29688,8199
18952,-31480,8455
18440,-32760,8711
18696,-32760,9223
18440,-32504,10247
18184,-32504,9991
17672,32008,9735
17416,30984,10759
17672,30984,11527
17416,30984,11783
17160,31240,12039
16904,30984,11271
17160,30728,11015
17160,31496,10759
16648,31496,11015
16648,31240,11015
16648,31496,11271
16648,31240,11015
15880,31752,11015
15624,32264,11015
15880,32264,11015
15624,32264,11527
15112,32520,11527
15112,32520,11783
15368,32264,11783
15368,32008,11527
15112,32520,11527
15112,-32248,11527
15368,-32248,11015
15368,-32248,10759
15368,-32248,11015
14856,-32248,11527
14856,-32248,11783
14856,-32504,11527
14856,32520,11527
14344,32264,12551
14088,32264,13063
14344,-32504,12807
14088,-32248,13319
13832,-31992,13831
13832,-31992,14087
13832,-31992,14087
13832,-32504,14087
13576,-32760,14343
13576,-32760,14855
13576,-32248,16391
13576,-32248,16903
13576,-32504,16647
13576,-32760,17159
13832,-32760,18183
13576,-32248,18695
13320,-31992,18695
13064,-32248,18439
13320,-32248,18439
13064,-31224,18183
12808,-30200,18183
12552,-30456,17927
12808,-30200,17927
12808,-29176,17927
12808,-28152,17415
12808,-27384,16647
13064,-26872,16135
13064,-26104,16391
12808,-24824,15623
12808,-24568,14599
13064,-24568,14343
13064,-23288,13575
13064,-22008,12551
12808,-21240,11527
12808,-21496,9991
13064,-21496,8967
12808,-20728,8199
12552,-20216,7175
12296,-20216,6919
12552,-20472,6919
13064,-20984,6663
12808,-20728,6151
12808,-20984,6151
12552,-21240,6151
13320,-20728,5639
13576,-20728,5383
13576,-21496,5127
13576,-22520,4871
13320,-22776,5383
13320,-22520,5895
13576,-23032,5895
13320,-24824,5895
13064,-25080,5639
13064,-24824,6151
13320,-24824,6919
13320,-25592,7431
13064,-26360,7431
13064,-26616,7431
13064,-26360,8455
12808,-26616,8711
13320,-27384,8967
13576,-27384,8455
13576,-27640,8199
13576,-27896,8199
13320,-27640,8199
13320,-27896,8455
13576,-27640,8711
13320,-27384,8967
13064,-27128,8711
13064,-27128,8199
13320,-27128,7687
13320,-27384,7687
12808,-27384,7431
12552,-27128,7431
12808,-27128,6919
13320,-27384,6407
13320,-27384,6407
13320,-27128,6407
13576,-27896,5895
13576,-28152,5639
13320,-27896,6151
13320,-27384,6663
13576,-27128,6663
13320,-27128,5895
13320,-27128,5127
13064,-26872,5127
13320,-26872,5895
13064,-26872,6407
13064,-26872,6407
13064,-27384,6407
13320,-27640,5895
13320,-27640,5383
13320,-27128,5127
13064,-26872,4615
13064,-26872,4103
12808,-26616,4103
13320,-26360,4359
13576,-26360,4103
13576,-26360,4103
13064,-26360,4103
13064,-26360,4103
13320,-25848,4359
13320,-25848,4359
13064,-25592,4103
13064,-25336,4359
13320,-25336,4359
13320,-24824,4359
13320,-24568,4103
13320,-24568,4103
13320,-24824,3591
13320,-24568,3079
13064,-24568,3079
13576,-24568,3079
13832,-24568,3335
13832,-24568,3591
13832,-24568,3335
13576,-25336,3335
13320,-26104,3591
13576,-26104,3335
13576,-25336,3079
13320,-25080,3335
13320,-25080,3335
13576,-24824,3079
13576,-25080,3335
13320,-25336,4103
13064,-25080,4359
13320,-24824,4359
13832,-25336,4103
13576,-26104,4103
13576,-25848,4359
13832,-26104,4359
13832,-26360,4103
13576,-26104,4103
13320,-26104,4359
13576,-26104,4359
13576,-26360,4103
13320,-26104,4359
13064,-25848,4615
13320,-26104,4871
13064,-26360,5127
12808,-26360,5383
13320,-25592,5639
13576,-25080,5383
13320,-25336,4871
13064,-25336,4615
13576,-25080,4359
13832,-24824,4359
13832,-24568,3847
13576,-24824,3591
13576,-24824,3335
13576,-25080,3079
13576,-24312,2567
13576,-23800,2567
13320,-23800,2567
13320,-24312,2567
13064,-25592,3079
13064,-26616,3591
13320,-27384,3591
13576,-26104,3335
13576,-17400,-1785
13831,-504,-13561
14087,20488,-32760
15111,-24312,10248
15879,-7928,-11000
16390,1288,-28151
17158,2056,29449
18182,-3832,29448
18950,-14328,-29688
19206,-21752,-19960
19718,-27128,-9976
20230,27912,2824
20487,23304,7688
20743,-1016,-29945
20743,-15608,-14585
20487,-23800,-4089
20231,-27896,2311
20232,-30200,5895
20232,-29944,6919
19720,-30200,7175
19464,-31992,8455
19720,-32760,9479
19208,-32760,10247
18696,-32504,10247
18440,-32760,10503
18440,31752,10503
17928,32008,10503
17928,32264,10503
17416,32264,10759
17160,32008,10503
17160,32008,10247
17160,32264,9991
16904,32264,9735
16904,-32760,10247
17160,-32760,10247
17160,32520,9735
16648,32520,9479
16648,32520,9479
16648,32008,9479
16648,32008,9479
16136,32008,9479
15880,32008,9479
15880,31752,9735
15880,31752,9735
15368,31752,9735
15112,31752,9479
15368,31752,9735
15368,31496,10759
15112,31752,11015
15112,32520,11015
15368,32520,10759
15368,32264,10759
15368,32008,11271
15112,32008,12295
14856,32008,12295
15112,32264,12551
14856,32264,12295
14600,32008,12551
14344,32008,14087
14600,32264,14599
14088,32264,14855
13832,32264,15367
13832,32520,16135
14088,-32760,16903
14088,32520,16903
13832,32264,16903
13832,-32504,17415
14088,-31224,18183
14088,-31480,18439
13832,-31224,18439
13832,-30968,18183
14088,-31224,18183
13832,-31224,18439
13576,-30200,18951
13320,-29688,18951
13576,-29432,18183
13320,-28920,17159
13320,-28408,17159
13064,-28152,16903
13064,-27640,16391
13320,-26872,15367
13576,-26104,14087
13320,-25080,13319
13320,-24568,12295
13320,-24568,10759
13320,-23544,9479
13576,-22776,9223
13576,-22776,8967
13832,-22520,6663
13832,-22520,5895
13576,-22520,5895
13576,-22520,5639
13576,-22776,4615
13576,-23032,4103
13320,-23032,3847
13320,-23288,3847
13064,-24056,3847
13320,-24568,4103
13576,-24568,4359
13576,-24824,4103
13320,-25592,4103
13576,-25848,4615
13832,-25848,4871
13832,-26104,5383
13576,-26360,5383
13576,-26360,5127
13320,-26360,5383
13576,-26616,5383
13832,-26872,5895
13576,-27128,5895
13064,-27640,6151
13320,-27640,5895
13320,-27896,5895
13064,-27640,6663
13064,-27384,7431
13320,-27128,7175
13576,-27384,7175
13320,-28152,7175
13320,-28408,7175
13576,-28152,7175
13576,-28408,7431
13320,-28408,7687
13320,-28408,7175
13576,-28152,6663
13320,-27896,5895
13064,-27640,5639
13064,-27384,5127
13320,-27384,4871
13320,-27384,4871
13064,-27128,4615
13064,-27896,4615
13320,-28152,5127
13320,-27640,4871
13320,-27640,4615
13320,-27896,4615
13320,-27896,4359
13576,-27640,4615
13576,-27384,4359
13320,-27384,4615
13320,-27896,4871
13320,-27896,5639
13320,-27896,5639
13064,-27640,5639
13064,-27640,5895
13064,-27640,5383
13064,-27640,5127
12808,-27128,5127
13064,-27128,5127
13320,-27384,5127
13320,-27384,5383
13064,-27128,5383
13320,-27128,4871
13576,-27384,4615
13576,-27640,4615
13320,-27640,5127
13320,-27640,5127
13576,-28408,4615
13320,-29176,4615
13064,-28920,4615
13064,-28664,4871
13064,-28664,4615
13320,-28408,4615
13320,-28408,4359
13064,-28152,3847
13320,-28408,3847
13576,-28920,3847
13576,-29176,3847
13576,-29176,3079
13576,-29176,3079
13832,-29176,3079
13832,-29432,3079
13576,-29176,2567
13576,-28920,2567
13832,-28920,2567
13832,-28920,2567
13576,-28920,2311
13832,-28664,2311
14088,-28920,2567
13576,-29176,2567
13320,-28920,2567
13576,-28664,2567
13832,-28664,2567
13832,-28920,2823
13832,-28664,3079
13832,-28664,3079
14344,-28664,3335
14344,-28664,3335
14088,-28152,3591
14088,-28408,3591
13832,-28408,3591
14088,-28152,3591
14088,-28152,3079
13832,-28152,3335
13576,-28664,3591
13832,-29176,3335
13832,-29176,3335
14088,-29944,3591
13832,-30200,3847
14088,-29688,4103
14344,-29176,4359
14088,-28664,4103
14088,-28664,4359
14344,-28664,4359
14600,-28408,4103
14344,-28152,4103
14600,-28152,4103
14344,-28152,3335
14344,-28664,3079
14344,-28408,2823
14344,-28408,3079
13832,-28664,2567
13832,-28664,2311
14088,-28664,2311
14088,-28664,2567
14088,-28920,2567
14344,-28920,2823
14600,-28664,2311
14600,-28920,2311
14600,-29944,3335
14344,-32504,3591
14344,-31736,3591
14600,-24824,263
14600,-10232,-10233
14599,7944,-26104
14599,27400,18696
15623,-19448,-3320
16902,-8440,-21240
17414,-7672,-30200
17670,-11768,-31224
18438,-20216,-26616
19462,-28408,-19192
19974,31496,-8952
19974,22280,3336
20231,9480,17160
20743,-4344,32263
20999,-18936,-17657
20999,-28152,-4857
20487,-30200,-2297
20231,-32760,3079
20232,32264,4359
19976,31240,5639
19720,30984,6151
18952,30728,6407
18952,30728,6663
18952,30728,6663
18696,29960,6919
18440,29448,7175
18184,29448,6919
18440,29960,6919
18440,29960,7175
17928,29960,7431
17928,29960,6919
17928,29960,6919
17928,29704,7175
17416,29192,7687
17160,29192,7687
17160,29448,7943
17160,29448,7687
16648,29192,7175
16392,29448,6919
16648,29704,7431
16392,29704,7943
16136,29448,7943
16136,29192,7687
16392,29192,8199
16136,28936,8711
16136,29448,8455
15880,29704,8711
15624,29704,8455
15880,29960,8711
15880,29704,9479
15624,29704,9991
15368,29448,9991
15368,29448,9991
15368,29448,11015
14856,29192,11271
14600,29192,11271
14856,29448,11271
14600,29192,11783
14344,28936,12551
14344,29192,13063
14600,30472,12807
14600,30216,13319
14344,30216,14343
14344,30216,14599
14600,30216,14855
14600,29960,15623
14344,30472,16391
13832,30728,16391
14088,30984,16135
14088,31496,16391
13832,31752,16903
13320,32264,17415
13320,32520,17415
13576,-32248,17415
13576,-31480,17159
13320,-31224,17415
13320,-30712,17415
13576,-29944,16903
13576,-28920,16135
13320,-28408,15623
13320,-27640,15111
13576,-27384,14855
13576,-26360,13831
13320,-25592,12807
13320,-25336,12039
13576,-24568,11015
13576,-23544,9735
13320,-23032,9223
13064,-23032,8455
13320,-22776,7431
13320,-22776,6663
13064,-22776,6151
13320,-22776,4871
13576,-23544,4871
13320,-24824,4359
13064,-25080,3847
13832,-25336,3591
14088,-25848,3335
14088,-26360,3335
14088,-26360,3079
13832,-26616,3079
13832,-26360,3079
14088,-26360,3335
13832,-27128,3335
13576,-27640,3591
13576,-27640,3591
13320,-27896,3591
13320,-28664,4103
13576,-28664,4359
13576,-28664,4359
13320,-28408,4615
13576,-28920,5383
13576,-29944,5895
13832,-29944,5895
13832,-29688,5639
13576,-29944,6151
13576,-30200,6407
13832,-29944,6663
13832,-29432,6919
13832,-28408,6663
13832,-28152,6663
13576,-28920,6919
13576,-29176,6919
13576,-29176,6407
13576,-29176,6407
13832,-28920,6407
13576,-29176,6407
13576,-29432,6151
13832,-29432,5895
14088,-29688,5895
13832,-29688,5639
13832,-29176,5895
14088,-29432,5127
14088,-29688,4871
13832,-29688,5127
13832,-29432,5895
13832,-28920,6407
13832,-26616,6919
13576,-24056,6919
13576,-22264,7431
13832,-19192,7943
13832,-17912,8199
13832,-9976,5639
13832,-5624,1799
14088,-1528,-2041
14087,4104,-6136
14855,12040,-10744
15111,21512,-13816
15367,32264,-14328
15623,-20728,-15608
16391,-8184,-20216
16903,3336,-28919
17159,14088,26121
17671,24072,16649
18439,30728,10249
18951,32520,7177
19207,27912,7433
19719,17160,11017
20231,1032,17417
20231,-17912,24072
20231,28680,30984
20487,10248,-25592
20487,-7416,-16121
20487,-21240,-7929
20487,-30968,-2041
20487,28424,2055
20232,26888,3847
19976,26632,4871
19464,26120,4359
19208,24584,4103
19208,24072,4103
18696,24072,4615
18440,23560,5127
18184,23304,5127
18184,23048,5383
18184,22536,5639
17672,21768,6151
17672,21512,5895
17672,21000,5895
17672,21000,5895
17160,21256,6151
17160,21000,6407
17160,21256,6151
17160,21256,6151
16648,21000,6407
16392,20744,6663
16136,20488,6407
15880,20488,6919
15880,20488,7175
16136,19720,7431
15624,19208,7175
15112,18952,7431
15368,18440,7175
15112,18184,7175
14856,17928,7175
14856,17160,7175
15112,16904,7431
15112,16136,7431
15112,15368,7431
15112,15112,7431
14600,14856,7687
14344,14088,7431
14088,13320,7687
14088,12808,7431
14344,12552,7175
13576,11784,6919
13320,11016,6663
13320,9992,6919
13320,9480,7175
13320,8968,6663
13064,8968,6663
13064,8200,6663
13320,7944,6919
13320,7176,7431
13064,6408,7943
13064,5896,7943
13320,5640,8199
13320,5640,8455
13320,5640,8455
13064,5896,8711
12808,7432,8455
12552,8712,8455
12296,9224,8199
12296,10248,8199
12552,12552,8455
12552,14344,8455
12296,16136,7943
12296,17672,7687
12552,19464,7431
12808,21256,6663
12808,22536,5895
12552,23048,5383
12808,24584,5127
13064,26376,5127
13320,27400,5127
13064,28424,5127
12552,29448,4871
12808,30984,5127
12808,32008,4871
12808,32264,4103
12808,-32760,3591
12552,-31736,3591
12552,-30968,3335
12552,-30712,3079
13064,-30712,3335
13064,-30456,3591
12808,-29432,3591
13064,-29176,3591
13320,-29432,3847
13320,-29432,3847
13064,-29432,3847
12808,-29176,3847
13064,-28920,3847
13064,-28664,3335
12808,-28920,3079
12808,-29944,3335
13064,-30200,3591
13064,-29176,3847
12808,-29176,4103
12808,-29176,4103
13064,-28920,4359
13320,-28664,4359
13064,-28920,4103
13064,-28920,3847
13320,-28408,3591
13576,-28408,3335
13320,-28408,4103
13320,-28664,4615
13320,-28664,4615
13320,-28408,4871
13320,-27640,4359
13064,-27640,4103
13064,-28152,4103
13320,-28152,3847
13320,-28152,3847
13064,-28408,3847
13064,-28408,4359
13320,-28408,4615
13576,-28408,4615
13320,-28152,4103
13576,-28152,2823
13832,-28408,2567
13832,-27896,3079
13576,-27640,3335
13576,-27640,3079
13832,-27640,3079
13832,-27640,3079
13576,-27384,3079
13832,-27128,2823
14088,-27128,2823
13576,-27128,3335
13320,-27128,3847
13320,-28152,3847
13832,-28152,3591
13832,-28408,4103
13576,-28920,4103
13832,-28664,4103
13832,-28920,4103
14088,-28920,4359
14344,-28664,4359
14344,-28408,4359
14344,-28664,5383
13832,-28664,5639
13576,-28408,5383
13832,-28152,4871
14088,-28152,4615
13832,-27896,4871
13320,-28408,5639
13576,-28664,5383
13576,-28408,5639
13576,-27896,5639
13576,-27896,5639
14088,-27384,5383
14088,-27384,5383
14344,-27640,5639
14344,-27896,5639
14344,-28408,5127
14088,-28152,4103
13832,-28152,4359
14088,-28152,3847
14088,-28152,3847
13576,-27896,3591
13576,-27896,3591
13832,-27640,3591
13832,-27896,3591
13576,-27896,3079
13320,-27640,3079
13576,-27128,3335
14088,-26872,3079
14088,-27128,2823
14088,-27640,2567
14344,-27896,2567
14344,-27896,2055
14088,-28152,1799
14088,-28152,2055
14344,-27896,2055
14088,-27640,2055
13832,-27128,2823
13576,-27128,2823
13832,-27384,2823
13832,-27640,2823
13576,-27384,3079
13576,-27128,3079
13576,-26872,3079
13576,-26872,3591
13832,-27128,3847
13832,-26872,3847
14088,-26872,3847
14088,-27896,3847
13832,-27640,4103
13832,-27640,4615
14088,-27640,4615
13832,-27384,4615
13576,-27640,4359
13576,-27896,4615
13576,-27896,4615
13576,-28152,4871
13320,-28152,4871
13320,-28920,4871
13576,-29688,5127
13576,-24568,2567
13832,-12536,-5369
13831,3848,-21496
14087,20744,23048
14855,-28152,2568
15879,-16888,-14072
16134,-13560,-19960
16646,-13560,-30456
17158,-20472,-26616
18182,-28408,-18424
18694,32520,-8952
18694,25352,1288
18439,13064,14856
19207,776,30728
19463,-12024,-21497
19463,-22776,-10233
18951,-27640,-2809
18951,-29688,1543
18952,-30200,3591
18952,-30200,3591
18696,-31992,3847
18440,32008,5127
18184,32008,6663
18184,32264,6663
18184,32264,6407
17672,30984,6663
17416,30472,7687
17416,30472,8455
17160,30728,8199
16648,30728,8711
16648,30728,9223
16648,30472,9991
16648,30728,10247
16392,30728,9991
16136,30984,9991
15880,30728,9735
15880,30472,9479
16136,30728,9223
15880,30728,9991
15624,30472,10759
15880,31240,10503
15624,31752,10503
15368,31752,10759
15368,31752,10503
15368,31752,10247
14856,31496,10503
14856,31496,10503
15112,31752,10759
14856,32008,11271
14600,32008,11527
14600,32008,11783
14856,32008,11783
14600,30984,11783
14600,30984,12551
14600,31240,13319
14856,31240,13319
14856,31752,13831
14600,32520,14087
14344,32520,14087
14600,32264,14343
14344,-32760,14087
14088,-32248,14343
13832,-32504,15367
13832,-32504,15879
14088,-32248,15879
14088,-31992,16647
13832,-32248,18439
13832,-31992,19463
14088,-30712,19719
14088,-30712,19463
13832,-30712,20231
13832,-30712,20999
14088,-30200,20999
14088,-29432,20743
13576,-29432,20231
13576,-29432,19975
13576,-28152,19975
13576,-26616,18951
13320,-25848,18951
13064,-25592,18183
13320,-25592,17415
13064,-24824,16903
13320,-23288,15623
13320,-22776,14855
13064,-22264,14087
13320,-21496,12551
13576,-20984,11527
13576,-21240,11527
13576,-21240,10759
13576,-21496,9479
13832,-21496,8199
13832,-21752,7687
13832,-21496,7687
13832,-21496,6663
13576,-21496,5895
13576,-21496,5895
13320,-22520,5895
13320,-23288,6151
13576,-23032,6151
13832,-22776,6919
13576,-22776,6919
13832,-23288,6663
14344,-24824,6663
14344,-25336,7431
14088,-25336,7687
14088,-25592,7687
14344,-25592,7943
14344,-25592,9735
14088,-25336,10503
14088,-24312,11015
13832,-22776,11783
14088,-20472,12551
14088,-17144,13063
13832,-13304,13063
14088,-7672,12807
14344,-1528,11015
14600,3592,6664
14600,8712,2056
15112,15368,-1016
15623,23560,-1784
16135,-31480,-2040
16135,-19448,-2552
16903,-5624,-5368
17415,7176,-13303
17927,19720,-25591
18439,29192,27401
18951,-29944,17929
19719,-27384,12297
20231,-30712,9481
20487,24328,9737
20999,8200,13577
21511,2312,15881
21511,31752,-32504
21511,13320,-22264
21511,-6648,-12793
21255,-22520,-4345
21255,-31224,1799
21256,28168,5383
21000,25096,6919
20744,25096,7431
20488,25096,8199
19976,24840,8455
19976,24072,7687
19720,22280,7431
19464,21256,7431
18952,21512,7943
18696,21768,7687
18696,21256,7943
18696,20744,8199
18184,20744,9223
17928,20744,9735
17672,20232,9735
17672,19208,9223
17928,18952,9479
17672,18696,9735
17672,18696,9735
17672,17672,9479
17160,16136,9223
16904,15880,9479
16904,15880,9479
16648,15624,9223
16136,14600,9479
15880,13832,9735
15880,13320,9479
15624,13320,9223
15368,12552,9735
15368,11016,9991
15112,9736,9991
15112,9224,9991
15112,8200,9735
15112,6664,10247
15112,6152,11271
15112,5896,12039
14600,5128,12039
14600,3080,11783
14344,2056,12295
14088,2056,12807
13576,1544,12807
13320,8,12807
13320,-760,13318
13320,-1016,14342
13320,-760,14342
13064,-1528,14086
13064,-2296,13318
13064,-2296,13318
13064,-1784,13318
12808,-1784,13574
12808,-1784,13318
12552,-1016,13062
12808,264,13319
13064,2056,13575
12296,3336,13575
11784,4872,13319
11784,7176,12551
11784,9736,12551
11784,11528,12807
11528,13576,12807
11528,16136,12295
11528,18184,11527
11784,19464,11015
11784,20744,10503
11784,23048,10247
11784,25608,9735
12296,27400,9479
12296,28168,9735
12552,28936,9735
12552,29704,8967
12296,30216,7943
12040,30216,7687
12296,31240,7943
12296,-32760,7943
12296,-32504,7943
12040,-32248,7431
12040,-32248,7431
12296,-32248,7687
12296,-32248,7431
12296,-31224,7431
12296,-30712,7431
12296,-30712,7431
12296,-30712,7943
12552,-30968,8455
12552,-30712,8455
12296,-30712,8455
12296,-30968,8967
12552,-30968,9223
12552,-30968,8967
12552,-30456,8967
12552,-30456,8967
12808,-30712,8711
12552,-30712,8455
12296,-30712,8455
12296,-30968,8967
12552,-30712,8711
12296,-30200,8455
12552,-29944,8967
12808,-29944,9223
12808,-29688,9479
13064,-29944,9223
13064,-29688,9223
13064,-29176,8967
12808,-28920,8711
12808,-28664,7943
13064,-28408,7687
12808,-28152,7175
12552,-28664,7431
12552,-28920,7431
12296,-29176,7431
12296,-29432,7431
12552,-29688,6919
12552,-29432,6919
12552,-29176,6407
12552,-29176,6151
12552,-29176,5895
12808,-29176,6151
13064,-29176,5895
12808,-29176,5895
12808,-28920,6663
12808,-28920,6919
12808,-28920,6407
12808,-28664,6151
12808,-28920,6151
12552,-28920,6407
12552,-29176,6663
12808,-29176,6407
12808,-28920,5895
12808,-28664,5895
12552,-28664,5639
12552,-28408,5639
12552,-28152,5895
12552,-28664,6151
12808,-28664,6151
12808,-28408,6407
12552,-27640,6919
12808,-27640,7175
12808,-27896,7431
12808,-27896,7175
12552,-27640,7431
12552,-27384,7687
12552,-26872,7687
12552,-26616,7687
12296,-26360,7687
12552,-26104,7687
12552,-25848,7687
12296,-25592,7687
12552,-25848,7943
12808,-26104,8199
13064,-26104,8711
13320,-25848,8711
13320,-25848,8455
13320,-25592,7943
13064,-25848,7687
13064,-25848,7431
13064,-25848,7431
13064,-25336,7175
12808,-25080,7175
12808,-25080,6919
13064,-25080,6663
13064,-25080,6151
12808,-25080,6151
12552,-25336,6407
12808,-25080,6151
13320,-24824,5895
13320,-24824,5383
13320,-24568,5127
13576,-24824,5383
13576,-24824,5639
13320,-24312,5383
13320,-23544,5127
13576,-23800,5639
13576,-23800,6151
13320,-23800,6151
13320,-23800,5895
13576,-23800,5639
13576,-23544,5895
13576,-23544,6919
13320,-23800,7175
13064,-23288,6919
13320,-23032,6663
13832,-22776,6663
13832,-22776,6663
14088,-22776,6663
14344,-22776,6663
13832,-22776,6919
13832,-23032,6919
14088,-23800,7175
14088,-23544,7687
13832,-23288,7943
13832,-23544,7943
13832,-23544,7687
13832,-23288,7943
13576,-23288,8711
13576,-23544,8967
13576,-23544,9223
13320,-23288,9223
14088,-23288,9223
14344,-23288,9223
14088,-23544,8711
13832,-23288,8199
14344,-23288,7687
14600,-23544,7687
14344,-24312,7687
13832,-24568,7175
13832,-24056,6919
14088,-24056,6663
14088,-24056,6151
13832,-24056,6151
13576,-23800,6151
13576,-23800,5895
13576,-23800,6151
13320,-23800,6151
13832,-23800,5639
13832,-23800,5127
13832,-23288,4615
13576,-23544,4359
13832,-23544,5639
14088,-23288,6407
14088,-23032,6407
13832,-22776,6151
14088,-22776,5895
14088,-23288,5639
13576,-23544,5639
13576,-23288,5639
13320,-23032,5383
13320,-24312,6407
13320,-24824,6919
13576,-24824,6919
13576,-24824,6663
13320,-24312,6407
13576,-23800,6407
13832,-23800,6663
13832,-23800,6663
14088,-23800,6919
14088,-24312,7175
13832,-25080,7175
13576,-25080,7175
13832,-24312,7943
13832,-24568,8199
13576,-24568,8199
13320,-24824,8455
13320,-24568,8711
13320,-24312,8967
13320,-24312,9479
13320,-24824,9735
13320,-25080,8455
13064,-24824,7431
13064,-24568,7431
13320,-24568,7687
13320,-24824,7687
13064,-24568,7175
13064,-24056,6919
13064,-23544,6919
13320,-23544,7175
13576,-23288,6919
13320,-23544,6151
13064,-24056,5895
13064,-23544,5639
12808,-23288,5639
12808,-23288,5639
12808,-23544,5639
13064,-23288,5127
13320,-23288,5127
13064,-23544,5383
13064,-23800,5383
13320,-24056,5383
13576,-24568,5383
13320,-24568,5639
13064,-24568,5639
13320,-24056,5383
13320,-23544,5383
13064,-23288,5639
13320,-23544,5639
13576,-24568,5895
13064,-24568,6151
12808,-25336,6407
12808,-26616,6919
13064,-27896,7431
13064,-25336,7175
13320,-15096,1799
13320,2056,-10488
13575,21256,-28664
14599,-24312,15880
15623,-9464,-4344
16134,-2552,-18936
16134,-3064,-23800
17414,-10744,-22008
18438,-19960,-15352
18438,-25848,-6648
18438,32008,4104
18951,18952,17416
19719,3848,31752
19463,-10488,-18937
19207,-14328,-14329
19463,-26360,3079
19208,-27896,7431
18696,-27896,8967
18696,-27640,9223
18696,-28664,9735
18696,-29944,9991
18440,-29944,10247
17928,-30200,10503
17928,-30200,10759
17928,-30968,10759
17672,-31992,10503
16904,-32504,10759
16904,-32248,11015
16904,-32504,11783
16648,-32760,11783
16392,-32248,12295
16392,-32248,12551
16392,-32504,12807
16392,-32504,13063
16136,-32248,12807
16136,-32504,13063
16136,-32760,13575
15880,-32760,13831
15624,-32504,13575
15624,-32248,13575
15624,-32248,13831
15368,-32248,14343
14856,-32760,14599
14856,32520,14599
14856,32520,14855
14600,32264,15111
14600,32264,14855
14344,-32760,15111
14344,-31992,15879
14344,-32248,16135
14344,-32504,16391
14088,-32760,16903
14088,-32760,17159
14088,-31992,17415
14088,-31992,17415
13832,-32248,17415
13576,-31992,17415
13320,-31736,16903
13576,-31736,16391
13576,-31992,16391
13064,-31480,17159
12552,-31224,17415
12296,-31224,17415
12808,-31224,17415
13064,-31480,17671
13064,-31736,18439
13064,-31736,19207
12552,-31736,19463
12552,-31480,19719
12808,-30456,20231
12808,-29944,20487
12552,-29688,20743
12552,-28664,20999
12808,-27128,21511
12296,-26104,21767
12040,-25848,21511
11784,-25336,21511
12040,-24056,21767
12040,-23544,21511
11784,-23544,20487
11784,-23032,19207
12040,-22008,18695
12040,-20472,18695
12040,-19448,18183
12040,-19448,17415
12296,-18936,17159
12040,-17144,16647
12296,-16120,15879
12296,-16376,14599
12552,-16632,14087
12296,-15352,13831
12040,-14840,13831
12040,-14840,12807
12296,-15864,12295
12296,-16120,12295
12296,-16120,12039
12040,-15864,12039
12040,-15608,12039
12296,-16376,11783
12296,-16888,11271
12552,-16888,11015
12552,-17912,10759
12552,-19448,10503
12552,-20472,10247
12552,-20984,10247
12808,-21240,10247
12808,-21752,10503
12552,-22776,10759
12552,-22776,11015
12552,-22776,11527
12552,-23288,12295
12296,-23800,13063
12296,-24312,13319
12552,-24312,13319
12552,-24824,13319
12296,-25592,13319
12296,-25592,13063
12552,-25336,13575
12808,-25848,14087
12552,-26360,14343
12552,-26616,14599
12808,-26360,14599
12552,-25592,14343
12296,-25080,13831
12296,-25592,13319
12296,-25336,13575
12296,-26360,13063
12296,-26872,12807
12296,-26104,12807
12040,-25848,13063
12040,-25592,12807
11784,-25592,12039
11784,-25336,11271
12040,-25080,11271
12040,-25336,11015
12040,-25848,11271
12040,-25336,11783
12040,-24824,12039
12296,-25080,11271
12296,-25336,10759
12296,-25336,10503
12552,-25336,10503
11784,-25592,10503
11528,-26360,10503
11528,-26872,10247
11272,-26360,10247
11784,-25848,9735
11784,-25592,9223
11528,-26104,8711
11528,-26616,8199
12040,-26872,8455
12040,-26104,8199
11784,-26104,7431
11784,-26104,6919
12040,-25592,6663
12040,-25592,6663
12296,-25848,6919
12296,-25848,6919
11784,-25592,6919
11784,-25848,7175
12040,-25848,7431
12040,-25336,7431
11784,-25336,7431
11784,-25080,7687
12040,-24824,7943
12040,-24568,7431
12040,-24568,7175
12040,-24312,7431
12040,-24312,7175
12296,-25336,7175
12552,-25080,7431
12040,-24056,7431
12040,-24056,7431
12296,-24056,7431
12296,-24056,7431
11784,-24312,7175
11784,-24568,7431
12040,-24568,7175
12040,-24568,7431
11784,-24312,7943
11784,-24312,7687
12040,-24312,7175
12040,-24568,6919
12040,-25080,7431
12040,-25080,8199
12296,-25336,8711
12296,-25592,8967
12296,-25336,8967
12296,-25080,8711
12296,-25080,8711
12296,-25080,8967
12296,-25592,8967
11784,-25848,8455
11784,-25848,8455
12040,-26872,8455
12040,-27384,8455
11784,-27128,7687
11784,-27128,7687
12040,-27128,7687
12040,-27128,7431
11784,-27896,7431
11528,-29176,8199
11784,-29944,9223
12296,-26872,7943
12040,-15096,775
12040,2568,-13304
12551,23048,-32504
13319,-22264,11528
14087,-7416,-9208
14342,-2040,-24824
14854,-3576,-29944
16390,-12280,-27896
17158,-23288,-20984
17158,-29176,-11768
17158,-29944,-8184
18182,19464,13576
18695,5896,28680
18695,-7416,-21753
18439,-18936,-8185
18439,-25080,1799
18440,-28152,6407
18184,-29944,7943
17672,-29688,8199
17672,-30712,9223
17416,-32504,10503
17160,-32504,11015
16904,-32248,11271
16648,-32248,12295
16136,-31992,13063
16392,-31736,13063
16392,-32248,13063
15880,-32504,13063
15624,-32248,13319
15880,-32760,13831
15880,32264,14855
15624,32264,15111
15368,32264,15111
15112,-32248,15111
15112,-32248,15623
15112,-32248,15879
14856,-32248,15879
14600,-32248,15879
14856,-32504,16135
14856,-32760,16135
14088,-32760,15367
13832,-32504,14343
13832,-32760,13831
13832,32520,14087
14088,-32504,14343
14088,-31992,14087
14088,-32248,14599
13832,-32248,15111
13832,-32248,15367
14088,-31992,15367
14088,-31480,14855
13576,-30968,15111
13576,-31224,15367
13576,-31480,15111
13576,-31224,15367
13064,-31992,15623
12808,-32760,15879
13064,32520,16391
13064,32520,16903
12808,-32760,17927
12808,-32760,18183
13064,-32760,18695
13064,-32504,19207
12808,-32760,19975
12808,32520,20487
13064,-31992,20743
12808,-31736,20999
12552,-31736,21767
12552,-31992,22023
12808,-31992,22279
12296,-31736,23047
12296,-30968,23303
11784,-29944,23559
11784,-29432,23559
12040,-29176,23303
12040,-28664,22279
11784,-27640,21511
11784,-27384,21511
12040,-27128,21511
12040,-26360,20487
12040,-25592,19719
12040,-24824,19463
12296,-24056,18695
12040,-23288,17415
12296,-22264,16135
12040,-22008,16391
11784,-21752,14855
11784,-21496,13575
12040,-21496,12295
12040,-21752,11783
11784,-21496,11783
11784,-21752,11271
12040,-21240,10247
12040,-20728,9991
11784,-20984,10247
12040,-21496,9479
12296,-22264,8967
12552,-23032,8967
12808,-22776,8711
12552,-23288,8967
12552,-24056,8967
12808,-24056,8967
12808,-24056,9223
12808,-24312,9479
12808,-24312,10247
12552,-24056,11015
12296,-24312,11015
12040,-25080,11015
12040,-25080,11271
12296,-24568,11783
12552,-24824,12039
12808,-25336,11783
12808,-25848,12039
12552,-26104,12551
12552,-26104,12551
12552,-25848,12551
12552,-25848,12551
12808,-25592,11783
12808,-25848,11271
12808,-25848,11271
12808,-25848,11271
12552,-25592,11015
12296,-25592,10759
12552,-25336,10759
12296,-24312,10247
12552,-24568,9735
12296,-24568,9479
12296,-24056,9735
12296,-23544,9223
12040,-23800,8711
12552,-24056,8711
13064,-23800,8455
13064,-23544,8711
13064,-23544,8967
12808,-24312,8455
12552,-24312,7943
12808,-24568,7431
12808,-24568,7175
12552,-24568,7431
12296,-24568,7943
12040,-24312,8199
12040,-24056,7943
12296,-24056,7943
12296,-24312,8199
12296,-24056,7687
12296,-23800,7431
12296,-23800,8199
12552,-24568,8711
12552,-24312,8711
12296,-24312,7687
12552,-24312,7175
12552,-24312,7431
12552,-24568,7687
12296,-24568,7943
12040,-24824,7687
12296,-25080,7175
12552,-25080,6919
12296,-25080,7431
11784,-24568,7175
12040,-24056,7175
12040,-24312,7175
12040,-24312,7175
12040,-24312,6919
12552,-24312,7175
12552,-23800,7175
12296,-23800,7175
12296,-23800,7175
12552,-23288,6919
12552,-23288,7175
12296,-23032,7175
12296,-23032,7431
12552,-23032,7431
12296,-23032,6919
12040,-22776,6663
12040,-22776,6663
11784,-22776,6663
12552,-22520,6663
12552,-22776,6919
12296,-21240,6919
12552,-19960,7175
12808,-19448,7943
13064,-18680,8455
13064,-17400,8711
13064,-16632,8455
13576,-16632,8455
13576,-16632,9223
13320,-15864,9991
13320,-15608,9735
13576,-15352,9735
13576,-16120,9991
13576,-16120,10759
13576,-16376,11015
13832,-16376,10503
14088,-16120,10247
14088,-16120,10247
14344,-15864,9991
14600,-15608,10247
14856,-15096,10759
14856,-15096,11015
14856,-15352,10759
15112,-15608,10759
15368,-15608,9735
15368,-15608,9479
15112,-15352,9223
15368,-15096,9223
15624,-14840,8967
15624,-14840,9223
15368,-14840,8967
15368,-15096,8455
15624,-15096,8455
15880,-14584,8711
15880,-14072,9223
16136,-14072,9479
16648,-15096,9479
16648,-15352,9223
16392,-15096,9223
16648,-15608,9479
16904,-15608,9223
16904,-16632,8711
16648,-17144,8711
16648,-17144,8711
16904,-17144,8711
16648,-17656,8455
16392,-17656,8711
16392,-17144,8711
16648,-16632,8711
16904,-16888,8967
16904,-16888,9223
16904,-16888,8967
16904,-17144,8455
17160,-17656,8711
17416,-17912,9479
17160,-17656,9479
17416,-17400,9479
17672,-17656,8967
17928,-17656,8711
17672,-17656,8967
16904,-17912,8967
16904,-17400,9223
16904,-17400,9223
16904,-17656,9223
16904,-17912,9223
16904,-17912,9223
16904,-17656,9223
16904,-16632,8967
17160,-16632,8455
17160,-16632,8711
17416,-16632,8711
17416,-16888,8711
17416,-15864,8455
17416,-15864,8711
17416,-15608,8967
17416,-15608,8967
17416,-15608,8711
17416,-15608,8455
17416,-15864,8711
17416,-15864,8967
17160,-16120,8711
17416,-15864,8455
17416,-15864,8455
17416,-16376,8711
17672,-16376,8455
17672,-16120,8455
17672,-16376,8967
17672,-16632,8967
17928,-16376,9223
17928,-16120,9479
17928,-16376,9223
17928,-16632,9223
17928,-16376,9479
17672,-16376,9735
17672,-16888,9479
17672,-18168,9991
17672,-17912,10247
17416,-16376,10503
17416,-15864,9991
17672,-16120,9223
17672,-16376,9223
17672,-16376,9479
17928,-16120,9479
17928,-16120,9479
17928,-16888,9735
17928,-16632,9735
18184,-16376,9479
18184,-16632,8711
18440,-16632,8455
18696,-18424,9223
18184,-19960,9479
17672,-19704,10247
17672,-15864,8711
17928,-5624,1799
18184,12296,-13048
18439,-32248,31240
19207,-11768,8968
20231,2312,-11255
21254,7432,-25079
21766,7176,-29943
22790,520,-27895
23558,-9464,-19704
24326,-16120,-9720
24838,-24568,1032
24839,28424,15112
24839,13832,32008
25095,-2296,-16633
25351,-14328,-2809
24839,-18936,5639
24072,-20728,9735
24072,-22520,11783
24072,-23544,12551
24072,-23544,13063
23560,-23800,13831
23304,-25592,15111
23560,-26360,15367
23816,-26360,15623
23048,-26616,15623
22792,-26872,16135
23048,-26616,16391
23048,-26360,16391
22280,-26104,16391
22024,-26616,16647
22024,-27384,16903
22280,-27384,17159
21768,-27128,16903
21000,-26872,16647
21256,-27128,16391
21512,-26872,16647
21256,-26872,16391
20488,-26872,15623
20744,-26872,15367
20744,-26872,15623
20488,-27384,15623
20488,-27384,15623
20488,-27640,15623
20488,-27384,15879
20232,-26616,15623
19976,-26360,15623
20232,-26872,15367
19976,-26616,15111
19976,-27384,15623
19976,-27896,15623
19464,-27128,16135
19464,-26872,16391
19208,-26872,16391
19208,-26104,16647
19464,-26104,17415
19464,-26616,18183
19464,-27128,18439
19208,-27128,18695
19208,-26872,19719
19208,-26872,20231
19208,-27128,20487
19464,-26616,20487
18696,-25848,20487
18440,-25848,20743
18696,-25848,22279
18952,-25848,22535
18184,-25592,22791
17928,-25848,22791
18184,-26104,23815
17928,-25336,24327
17928,-24568,24071
18184,-24824,24071
18184,-24568,24071
17928,-24056,24071
17928,-23288,23559
17672,-22264,23559
17672,-22264,23815
17928,-21496,23303
17928,-20216,22791
17672,-19704,22023
17928,-19192,21511
18184,-18936,20999
17672,-17912,20231
17160,-16376,19463
17416,-16376,18439
17416,-16376,17415
17672,-15608,16391
17416,-14840,15111
17672,-14584,14087
17672,-14840,13575
17672,-14840,12807
17672,-14072,12039
17928,-13816,11527
17928,-13048,11271
18184,-13048,10503
18184,-13048,9735
18184,-14072,9735
17928,-14840,9991
17928,-15608,9991
18184,-16376,9735
17928,-16376,9991
17672,-16888,10503
17416,-18168,11271
17672,-18424,11527
18184,-18424,11271
17928,-19448,12039
17928,-20216,13319
18184,-20728,14087
18184,-21240,14087
17928,-21752,14599
17928,-22008,15367
17928,-22264,15879
17928,-22264,15879
17672,-22008,15879
17160,-22008,15623
17416,-22520,15623
17416,-23288,15879
16904,-23800,15879
16904,-22776,15623
17160,-22008,15879
17160,-21752,16391
16904,-21752,16135
16904,-22008,15367
16904,-22008,14343
16904,-22008,14087
17160,-21752,14343
17160,-22008,14343
17416,-22520,14087
17160,-22520,13575
16904,-22264,13831
16904,-21240,13319
17160,-20984,13063
16904,-21240,12551
16648,-20984,12039
16648,-20472,12295
16904,-20472,12295
16904,-20728,12039
16648,-20472,12039
16904,-20984,12039
17160,-21752,11527
17160,-21240,11271
17160,-20728,11015
16904,-20472,11271
16648,-20216,11271
16648,-20472,11271
16904,-20216,11015
16904,-20216,10759
17160,-20216,10503
16904,-20472,11015
16648,-20216,11783
16648,-20472,11527
16904,-20728,10759
16904,-21496,10759
16648,-22264,11015
16648,-22520,11015
16648,-22008,10759
16392,-21752,10759
16904,-22264,10759
17160,-22520,10759
16904,-22264,9991
16648,-22008,9735
17160,-22008,9735
17160,-22008,9735
17160,-21752,9735
16904,-22520,9735
16648,-23800,9223
16904,-23800,8967
16904,-23032,8967
16904,-22008,8455
16648,-21752,8455
16648,-22008,8711
16648,-22008,8199
16648,-21496,7943
17160,-21240,7943
17160,-21240,8199
17416,-20728,8455
17416,-20472,8455
17160,-20728,8455
17160,-20984,8711
16904,-20728,8711
17160,-20472,8711
16904,-20216,8967
16904,-19960,9223
17160,-19960,9479
17160,-19960,9479
16904,-20216,9223
16904,-19960,8967
16904,-19192,8711
