520,-6648,32263
-3064,-13561,-27385
-6648,-20217,-22009
-7928,-22009,-19193
-6136,-17145,-19449
-1016,-4089,-26105
7432,14088,27656
10504,19464,23816
22792,-16376,4616
27912,264,-3319
31495,15624,-10999
-32505,27656,-14583
30215,-32504,-12791
23047,27144,-5367
12807,10504,6921
2824,-15096,21256
-4856,22791,-30456
-9208,1543,-18680
-12024,-13049,-9721
-13816,-24057,-2809
-14840,-30969,3335
-15863,29703,8967
-16631,28679,14087
-16631,28679,17671
-15607,29447,17927
-14071,-31993,15879
-11511,-26105,9479
-8439,-21753,263
-6647,-19705,-8697
-4344,-18169,-15097
-2040,-15097,-20473
264,-13304,-26361
1032,-13304,-28409
4360,-11256,29703
5640,-9208,26119
6920,-7672,22279
7432,-7416,19207
7432,-7416,18439
7432,-7416,18439
8200,-7416,18183
8200,-7672,17415
8456,-7672,17671
8968,-7672,17415
9224,-7672,15879
8968,-7928,15879
8712,-7928,16135
8712,-7928,15623
9480,-6136,15111
9736,-4600,13319
10248,-4088,12551
10760,-3320,12295
11528,-1016,11271
12040,1544,9480
13064,3848,8200
13320,5128,7688
14088,7688,6920
14600,10760,4872
14600,11272,3848
16136,14600,2824
16392,16648,2824
17160,19720,1288
17416,21768,264
17672,23048,8
17672,24328,8
17928,26376,-760
18439,27656,-760
18439,27400,-760
18695,27400,264
18184,27912,1544
17160,28168,2312
16648,27144,2824
16648,25352,4104
16648,25352,5896
15624,24584,6920
14856,23560,7688
14600,22024,8968
13576,20232,10760
12808,19464,11784
11016,18952,12040
11272,16904,13320
11016,16136,15112
10760,15880,15880
10248,15624,16136
9480,13832,16904
10248,12552,17672
9992,12552,18952
9736,12040,19720
8968,11016,19720
8712,10504,19464
8712,10504,19464
8968,10248,20488
8456,9736,20488
7944,8200,20488
7944,7944,20488
8200,7688,20232
7176,7176,21000
6920,6408,21512
6920,5384,21512
6920,5384,21512
7176,5384,21768
7432,4616,21768
7432,3848,22536
7432,3336,22792
7432,3080,22536
7176,2824,22280
7176,3080,23304
7688,3848,24072
8200,4616,23816
8200,5640,24072
8456,5896,25096
8456,6664,25608
8712,7688,24584
9736,9992,22280
11016,11784,19976
11784,13064,17416
11784,14344,17160
12040,15112,16648
12296,16392,16392
12296,16648,16648
12296,17672,17672
12296,17928,18184
12552,17928,17928
12552,17672,17672
12552,15624,17160
12040,14600,17416
11272,14088,18952
11016,12552,19720
10760,9736,19976
9992,8456,20744
8456,7432,21512
7176,6152,22280
7176,5128,23048
7176,4616,22792
6408,4360,23048
6408,4360,23560
6408,3592,23304
6408,3080,22792
6408,3336,23048
6408,4104,23304
6408,4104,23048
6408,4360,22536
6408,4616,22024
6408,3080,22536
5128,520,24840
1800,-3576,29191
-2040,-9465,-31481
-4344,-17145,-25849
-5880,-21241,-21497
-6648,-19705,-20217
-3320,-9465,-24313
3848,7432,31752
12296,25352,19208
19464,-23032,7688
24072,-6392,-1784
29191,10504,-8951
-32761,25608,-14327
32263,-31992,-15351
29959,-30456,-14839
15879,19464,-1015
7431,-2552,13320
-1016,-30201,28424
-7672,9991,-24312
-11768,-7929,-14841
-13048,-18937,-7417
-13048,-27897,263
-14583,-32761,5383
-16119,29703,10503
-16119,29191,14855
-15351,29703,17671
-14583,32263,16391
-12791,-27385,10759
-9463,-21497,1799
-6135,-18425,-6905
-4344,-16633,-14329
-2808,-14073,-20217
-760,-11513,-26873
1800,-10744,-31993
3592,-9976,29447
4360,-7928,25351
6152,-5880,21255
7944,-4856,18183
7944,-5368,16647
7688,-5368,16391
7688,-5112,15367
7944,-4856,15111
8456,-5112,15367
8200,-5624,15111
8456,-5368,13831
8712,-5112,13319
8712,-5368,13063
8456,-4856,12551
9480,-4088,11783
10504,-2808,10759
10504,-1528,10503
10504,8,9736
10760,2312,8712
12296,4104,6920
13320,6152,6152
13576,8200,5384
13576,11272,4360
14856,13576,2056
15624,15624,520
15624,17928,264
15624,20488,-760
16647,23048,-2040
17927,24840,-3320
17927,26376,-3576
17671,27144,-3320
18183,29704,-3832
18183,30472,-4344
18183,30728,-4600
17415,31240,-4344
17159,31752,-2296
17159,31752,-1016
16647,30984,-1272
16391,30472,-248
16391,29960,1544
15624,28680,3592
15112,27912,4360
13832,26632,4616
13320,25096,6152
13320,24584,8456
12808,23560,9480
11784,22536,9736
11272,21256,10248
11272,20232,12296
11272,19720,13320
10504,19464,13576
9736,18184,13832
9736,17416,14344
9480,17416,15368
9224,17160,15880
9224,16904,15880
8968,15880,15880
8968,15368,16136
8968,14856,16136
8200,14856,16648
8200,13832,17160
7944,13576,16904
8200,13320,17160
8456,12808,17672
8456,12040,17928
7944,11016,18440
7176,10760,18696
7176,10248,18696
7176,9224,18696
6920,9224,18696
6664,8968,18696
7176,8968,18952
7944,8968,18952
7688,9736,19208
7688,10248,19464
7944,10760,19464
8456,11784,20232
8456,13064,20744
8456,13576,20488
9480,15368,18952
10504,16392,18184
11784,19464,15112
11784,20232,13320
12040,21000,12808
12040,21768,12552
11784,22536,12552
11528,22536,12808
12040,23048,13576
13064,23048,13576
12808,22792,13576
12552,21512,13576
12296,19976,13832
11528,19208,14856
11272,18440,16136
10504,17160,16648
9992,14856,16648
9224,13064,18184
7944,12552,18696
6664,11272,19208
6408,10248,19208
6152,9224,19208
5896,8968,19464
5640,9224,19976
5640,9224,19720
6152,9224,19720
5896,9480,19464
5640,9736,19208
5896,9480,19464
5896,9480,19464
5640,8968,19720
4360,6408,22024
1288,1032,26376
-2552,-5881,32263
-5368,-13049,-27897
-6392,-16633,-23289
-6392,-14585,-22265
-3320,-4857,-26105
3592,12296,29192
12296,30728,15880
19720,-18168,4360
23816,-2552,-3832
28167,13832,-10999
30983,27400,-16119
29447,-30456,-16119
22791,-32760,-9975
13063,19976,521
3848,-2040,14344
-2808,-28921,28168
-8440,11527,-24824
-12024,-5625,-14585
-12280,-9977,-12281
-13816,-24569,-249
-15864,-30201,6919
-18167,32263,12551
-17911,32007,17159
-16375,-31737,18695
-14839,-27897,16391
-12535,-21753,8711
-9719,-16377,-2297
-6648,-13049,-13305
-3832,-11001,-20473
-3064,-8441,-26873
-1272,-5881,-32505
1800,-4600,27911
3848,-3832,23815
4616,-2296,20487
5896,-504,16135
7176,264,13576
7944,8,13320
7944,8,13320
7176,-248,12807
7176,-248,11783
7432,-504,11271
8456,-504,11527
8200,-760,11271
7944,-760,10759
8712,8,9992
9224,264,9480
9224,1032,9736
9480,2312,8712
9992,3592,7176
10504,4616,6408
11784,6152,5640
12552,8456,4104
12808,9992,2312
12808,12296,1544
12808,14344,776
14344,16648,-504
15367,19208,-2040
15623,21768,-3320
15623,23816,-3832
15879,25864,-4600
16391,28168,-5368
17415,29960,-6392
17415,31240,-6392
17159,32520,-6136
17415,-32248,-6648
17415,-31736,-6904
16647,-31224,-6136
16647,-31224,-5112
16647,-31480,-4600
16135,-31992,-2552
15623,32520,-1528
14343,31752,8
13832,30984,1288
13576,29704,2824
13064,27912,3592
11784,27144,4872
11272,26376,6664
11528,25352,8200
11272,23560,9224
10504,22792,9992
9736,22024,11016
9736,21000,12296
9480,19720,12808
9224,19464,13320
8456,19208,14344
8456,18696,14600
8456,17416,14856
7176,16648,15112
7176,16648,16136
7432,16136,16392
7432,15368,16136
6920,14600,16136
6920,14344,16136
7176,14088,15880
6664,13064,16392
6664,12552,16904
6408,12040,16648
5896,11784,16648
5896,10504,16648
5896,9736,17672
5640,9480,18184
5640,9736,17928
5896,9480,17672
6152,8968,18184
6152,9480,18440
6152,10248,19464
5896,11272,19464
6408,11784,19976
6920,12296,21256
6920,13576,21512
7176,14856,19976
8968,16904,17672
9992,18440,16136
9992,18952,15368
9992,20488,14344
10248,21256,13064
10760,21768,13064
11016,22280,14344
10248,22536,14856
10504,22536,14600
10248,21768,14344
10248,20232,14600
10248,19464,15112
10248,18952,15112
9736,17928,15880
8712,16136,16648
7688,13832,17160
7176,13320,17928
6408,12040,19208
5384,10248,19720
4872,9736,19976
4872,9736,20232
4616,9480,20232
4360,8968,20232
4104,8712,19976
4104,8712,19720
4104,9224,20488
4360,9480,20488
4360,9224,19976
4104,8968,19720
4104,8456,20232
2824,5896,22280
264,1288,26120
-760,-761,27399
-5880,-12793,-27641
-7672,-16633,-22265
-8440,-15609,-21241
-5624,-7161,-24569
1288,8968,31496
10504,27400,19208
17672,-20728,6664
22280,-4856,-3064
27399,10760,-9975
29703,24584,-14583
28935,-31992,-15095
22791,-31992,-10231
13319,20488,265
3592,-1016,14088
-4088,-27129,28424
-10232,12807,-24568
-13560,-5369,-14841
-15096,-17657,-5881
-16120,-25849,1543
-16887,-30969,7687
-19191,31495,13831
-19191,31239,18951
-17399,-32505,21255
-15863,-28153,18183
-15351,-25849,16647
-10231,-16889,-249
-7160,-13561,-11001
-5112,-11001,-19449
-3576,-8953,-26361
-1272,-6649,-31737
1800,-5112,28935
3848,-3576,24839
4872,-1784,20743
5640,-504,16903
6920,8,14856
7176,8,13832
7176,264,13832
6920,8,13320
6664,8,12808
7432,-248,13063
7432,-760,11783
7688,-760,11271
7944,-1016,10759
7944,-1016,10503
7944,8,10504
7688,1032,9480
8200,1288,8456
9224,2312,7176
10248,4360,6920
10248,5128,6408
10760,7432,4616
11528,9480,3336
12552,11784,2824
12296,14344,1288
12808,16648,8
14088,18440,-1784
14855,21000,-2296
15879,24328,-2552
15879,25864,-3576
15623,27400,-4856
16647,28936,-4856
16903,31240,-4856
16391,32520,-6136
16391,32520,-6136
16647,-32504,-5624
17159,-30968,-4856
17159,-30968,-4088
16647,-31736,-2808
15111,-32248,-1784
14599,-32760,-504
14855,31752,1032
14344,30728,2568
13064,29448,2824
11784,27912,3848
11784,27656,4872
11784,25608,7176
11016,23816,8456
9992,23304,9480
9224,22536,11016
9224,21512,11784
9480,20232,12296
9224,19464,13064
8712,19208,13832
8712,18440,14344
7944,17416,14344
7944,16904,14856
7176,16648,15368
6920,16392,16136
6920,15368,16136
6920,14600,16392
6920,14600,16648
6664,14088,16648
6920,13320,16904
6920,12552,16648
6152,12296,16904
6152,11528,17928
6408,11016,17928
6152,10504,18184
5896,9992,18440
5896,9992,18696
5896,9480,19464
5896,8712,19720
5640,8456,19720
5640,8712,19720
6152,10504,19464
6920,11016,19976
6920,11016,20232
6920,11528,21256
6152,12296,21256
6152,13832,22024
6920,14600,22024
7688,16136,20488
8456,18184,17416
8712,19720,15112
9480,20744,15368
9736,21512,14856
9480,22536,14344
9480,22792,13576
9736,22536,15112
9736,22792,15880
9992,22536,15624
9992,21768,15368
10248,19976,14856
10248,19208,15624
9736,18952,16392
8712,16904,17160
8200,14856,17416
7432,13320,18184
5896,12296,19208
4616,10760,19720
4616,9992,20488
4872,8968,20744
4872,8968,20488
4872,8968,20488
4360,8968,20744
4104,8968,21000
4104,8712,20488
4360,8712,20232
4616,9224,20232
4360,9224,20488
4616,9224,20744
3592,7688,21768
776,3336,24840
-1784,-1785,30471
-4856,-8953,-29177
-8184,-15097,-23801
-9720,-16889,-20985
-8440,-12281,-21241
-2296,1287,-28408
520,7176,-32760
13320,-28920,11528
19208,-12280,2312
25352,3848,-5623
29191,19208,-12279
29191,30472,-15607
25863,-31480,-12791
18439,28680,-4087
8199,10248,8713
-1528,-14329,22792
-8184,23815,-29176
-12280,1543,-17656
-14584,-12793,-8441
-15864,-22009,-1529
-17400,-29177,5639
-18423,32519,12807
-18679,31495,18695
-18679,31751,21255
-18423,-31481,21255
-16119,-25593,16903
-12279,-19193,7175
-9207,-14841,-4601
-7416,-12281,-14073
-5368,-10489,-21241
-2552,-7929,-27385
-1272,-6905,-30201
1032,-5368,27143
2056,-3576,23815
4872,-1528,20231
6408,-504,16135
6152,-248,14599
6408,-760,14343
6920,-1016,14087
6920,-1016,13063
6664,-760,12551
6920,-760,12807
6920,-1272,12807
6920,-1272,12807
6664,-1016,11527
6920,-1272,10759
7688,-504,10759
8456,1032,10504
8968,2568,9480
8712,3336,8200
9480,4104,6920
10248,6408,6408
11016,8968,5128
11272,10760,3336
12040,12552,2056
13064,15112,1288
13320,16392,776
14088,20232,-1272
14343,22024,-2296
15111,24072,-2552
15111,26376,-3576
15623,28424,-4856
15879,29448,-5368
16391,31240,-5368
16391,32520,-5368
16135,-32760,-5624
16135,-32248,-4856
16391,-32504,-3832
15367,-31992,-3064
14599,-31992,-2040
14599,32520,-1272
14087,31752,264
13064,30216,2056
12296,29448,3080
12040,28680,4360
11784,27400,5640
11272,25608,6920
10248,24840,8456
9992,24072,9480
9736,22792,10248
9224,21512,11784
8712,21256,12296
8200,19976,12808
7944,19208,13832
7432,17928,14600
6920,17672,15112
6920,17416,15112
6664,16904,15624
6920,16392,16392
6408,15368,16648
6152,15368,16648
6152,14856,17160
6152,14088,17416
6152,13320,17928
5896,13064,18184
5896,12552,18184
5640,11528,17928
5128,10504,18440
4872,9992,18440
5128,9480,18696
5384,8968,18952
4360,8200,19208
4104,8200,19464
3848,7688,19464
4360,7944,19208
4872,7944,19976
4872,7688,19976
4616,9224,20744
5128,10504,21512
4872,10504,22024
5128,11016,22792
5384,12040,22536
6408,14600,22024
8200,16648,20488
8712,17416,17672
8712,18440,15880
8712,19976,15368
8968,20744,15112
8968,21000,15112
8968,21768,15368
8968,22536,15368
9480,22536,15368
10248,21512,15368
9992,19976,15624
9736,18696,15624
8968,18440,16904
8456,17416,17160
8456,15112,17928
6920,13064,17928
6152,12808,19208
4872,11272,20232
4616,9992,20488
4360,8456,21000
3336,8712,21000
3080,8456,20744
3080,8200,20744
2824,7432,21000
2568,7176,20744
3080,8200,20744
3592,8712,20488
3336,8456,20488
3080,8200,20488
3080,7432,21000
1544,5640,23304
-1272,775,26888
-4088,-5369,31751
-7160,-12537,-26873
-9720,-17401,-21753
-9464,-16377,-20473
-6648,-8441,-23289
-248,6919,-32248
8200,25352,20744
15624,-23288,7944
21512,-7416,-1784
26375,8968,-8439
29191,23048,-13303
29703,26888,-14583
22279,31496,-9719
13575,20232,265
3848,8,15113
-4856,-25849,29704
-11256,12807,-23800
-14584,-5881,-13817
-16376,-18169,-4857
-17912,-26617,2055
-19447,32007,8967
-20727,29447,15111
-20727,28935,20743
-20727,30983,23559
-19191,-30969,20487
-16375,-25593,13319
-12791,-19193,2823
-10231,-15353,-7929
-7928,-13817,-17145
-5624,-12025,-24057
-3064,-9209,-29177
-1272,-7161,31751
520,-6904,26631
2312,-5368,22535
3848,-3576,18951
4616,-2808,16391
4360,-3320,15623
4616,-3320,15111
5640,-3320,15111
5640,-3064,14855
5640,-3064,14855
5896,-3064,13831
5640,-3064,13575
5896,-3064,13319
6920,-3064,12807
7176,-3064,12551
6920,-2808,11783
6920,-1528,11527
8456,264,10760
8968,1288,8968
8968,2568,7688
9480,4872,6920
10248,6920,5384
11272,8200,4360
11528,9992,3336
11272,12808,2312
11528,15368,1288
13320,17160,-504
14855,19720,-1528
14855,22280,-2296
15111,24840,-2808
15367,25608,-2808
15367,27656,-3320
15623,29192,-3320
15623,30216,-3576
15623,30728,-3576
15879,30728,-3576
15623,30728,-3064
15367,30728,-1784
14855,30728,-504
14599,30216,520
14088,28424,1800
13576,27912,3848
12552,26888,5384
11528,25608,6408
11528,23816,7176
11016,22792,8456
10248,22280,10504
9736,21256,11272
9480,19464,11784
9224,18184,13320
8456,17928,15112
8200,17160,15112
7944,16136,15112
7944,15112,15624
7432,14856,16136
7176,14600,16648
7176,13576,17416
6920,13064,17672
6664,12296,17672
6408,11272,18184
5640,10504,18440
5640,10248,18184
5896,9992,18440
5896,9224,18952
6152,8712,19720
6152,7688,19976
5384,6920,19720
5128,6152,19720
5128,5384,20488
4872,5384,20744
4872,4872,20488
4872,4616,20488
5128,4360,20744
5896,4360,21256
5896,4616,21256
6152,4872,21256
6152,6408,22024
6152,7688,22536
6152,7944,23048
6408,8456,23560
6920,8968,24072
7688,11784,24072
8456,13064,22024
9480,14856,18952
10248,16904,16904
10504,18184,16392
10248,18696,16392
9992,18696,15624
10248,19208,15880
10248,19464,16904
10248,19720,17928
10504,19464,17672
10504,17928,17160
9992,16136,17160
9480,15624,17160
9480,15368,18184
8968,13064,18696
8200,10760,19208
7432,9992,20232
6152,8712,21512
4616,6664,22280
4360,5128,22536
4360,5128,22536
4360,5128,22536
4360,5128,22536
4360,4872,22536
4104,4872,22280
4360,5128,22536
4616,5128,22536
4104,5128,22536
3848,4872,22280
4104,4616,22280
4360,3336,22792
2056,8,26376
-1784,-5625,31495
-5624,-12793,-28409
-7160,-18425,-23033
-7928,-20217,-20217
-7928,-15609,-20729
-2552,-2041,-27385
6152,15880,26120
14600,-31480,13576
20488,-14584,3848
24584,1288,-5111
29191,16904,-12535
31239,29704,-15863
27655,-31736,-13559
19975,26632,-5879
10247,9736,6153
1288,-15096,20232
-2040,-24057,25352
-12024,1543,-19448
-14584,-12793,-11001
-14584,-22777,-4089
-15864,-29433,2567
-17911,31751,8967
-18423,30215,13575
-17655,30215,16647
-16631,32007,17415
-15351,-30201,15623
-12535,-24057,8199
-9463,-19193,-2041
-6904,-17401,-11513
-5880,-16121,-17401
-3576,-12793,-22777
-504,-10489,-28665
1288,-9464,30983
2824,-9208,27655
3592,-7160,24583
5128,-5112,20231
6152,-5112,16903
6152,-6392,16391
6152,-5880,16903
5896,-5880,16135
5896,-5368,15111
6408,-5112,15367
6408,-5368,15367
6408,-5880,14599
6920,-5624,13575
7176,-5624,13575
7688,-5112,13575
7688,-4088,13063
8200,-3576,11015
8712,-2552,10503
8968,-760,10247
9992,1544,9480
10504,3336,7944
11016,5128,6408
12040,7688,4872
12552,10504,3848
13064,12296,3080
13576,14600,1544
14344,17160,264
14856,19976,8
14856,21768,-760
15367,23560,-2040
15879,25352,-2552
16391,27144,-2552
16391,28168,-2552
16391,28424,-2296
16647,28680,-2808
16391,29448,-2040
16647,29704,8
16392,29704,1032
14856,28168,1544
14344,27400,2312
14088,26632,3592
13576,25608,5384
12808,24840,6664
12552,23048,7432
12040,21768,8968
11528,21000,10504
10504,19720,11016
9992,18696,11528
9480,17416,12808
9480,16904,14088
8968,16136,15112
8456,15112,14856
8200,14600,15624
7432,14088,16648
7432,13576,17160
7176,13320,16904
7176,12552,16904
7176,11784,17928
6664,11528,18440
6408,11272,18184
6408,10248,18696
6664,9224,18696
6664,9224,19464
6408,8968,19208
6408,8200,19464
6664,8200,19976
6664,7944,19720
6664,6920,20232
6408,5384,20744
6408,5128,20744
6152,4872,20488
5640,4616,20488
5896,4616,20744
6664,4872,20744
7944,5384,20744
8200,6152,21256
7688,6920,21512
7432,6920,22536
7432,8200,23048
7432,9480,23304
8456,11272,22024
9736,13576,19464
9992,14856,16904
10248,16136,15368
11016,17160,15112
10760,18440,14600
10760,18696,14344
10760,19464,14600
11016,20232,15368
11272,20232,15624
11272,19976,15368
11272,18696,15368
11272,16904,15368
11272,16136,16904
10248,15368,17928
9736,13832,17928
9480,11784,17672
8200,10760,18696
7176,9736,20232
6408,7944,20744
5896,6920,20744
5896,6408,20488
5640,6408,22024
5384,6152,22024
5128,5128,21512
5128,5128,21256
5128,5384,21000
5128,5384,21256
5128,6152,21512
5384,6152,21768
5128,5896,21512
5128,5384,22024
2824,1800,24840
-760,-4345,30215
-3832,-12025,-29433
-6136,-17913,-25081
-7160,-19705,-21497
-6392,-14841,-22009
-760,-1785,-28409
7432,17160,24584
15880,-29688,11784
21256,-12280,2056
26376,3592,-5879
31239,19976,-13047
32263,32008,-17143
28935,-28408,-15095
21511,28936,-6647
11783,10760,5385
2568,-14328,19464
-4600,23815,-31736
-9208,1543,-19704
-11512,-12537,-11257
-12792,-21497,-4601
-14072,-28665,1543
-15095,-31225,4359
-16119,29703,12551
-16119,29447,14599
-15607,32007,14855
-13559,-29433,12807
-10999,-24313,6151
-8695,-20217,-3833
-6648,-17657,-12281
-4856,-15609,-17657
-2808,-13561,-23033
-760,-11769,-28665
1288,-9976,31495
3080,-8696,28167
5128,-7160,25095
6408,-5624,20487
6920,-5368,17415
7176,-5368,17415
7432,-6136,17927
7176,-6136,17159
6920,-6392,16391
7432,-6392,15879
8200,-6136,15879
8200,-5880,16135
8200,-5368,15367
8200,-5368,14599
8200,-5624,14343
8968,-4856,13831
9480,-3832,12807
9480,-2040,11783
10504,-248,10759
11272,1544,9736
12040,3336,8712
12808,6152,7176
13320,8200,6408
14344,10504,5640
15112,12808,4104
14856,15112,2568
15624,17416,1800
16136,19720,776
16648,21512,8
16904,24072,-1016
16903,25608,-2040
17159,26632,-2040
17159,27656,-2296
16903,28936,-1784
16903,29448,-1272
17159,29704,-1272
16903,29192,-760
16391,28936,776
15112,28168,1800
14856,27912,1800
14856,26632,4104
14088,25608,5384
12808,24584,6408
12552,23816,7688
12296,22792,8200
12296,21256,9736
12296,20488,11016
10760,19720,12040
10248,18440,12808
10248,17160,13832
9736,16136,14344
8968,16136,14344
8712,15880,15368
8712,15368,15880
8712,14856,16392
8968,14344,16904
8712,14088,16904
8200,13576,17160
7176,12552,17416
7432,12040,17672
7432,12040,17672
7688,11528,17672
7688,10504,17928
6920,10248,18184
7176,9992,18696
6920,9224,18952
6408,8456,18696
6152,7688,18184
6408,7432,18184
6152,6664,18440
6152,6408,18440
6408,6408,18440
6408,6664,18184
6152,6408,18440
5896,6920,18952
6664,8200,18952
7432,9736,18952
7176,10248,19976
7176,10504,20744
7688,11784,20744
9224,14088,19720
9480,15624,17928
9736,17160,15624
10760,19208,13064
11016,20744,12552
11528,21256,12552
11528,21256,12552
11528,22280,13320
11016,22536,14088
10760,22536,14600
11784,22792,14600
12040,21256,13576
11784,19976,13832
10248,19464,14600
9736,18696,14856
9992,17416,16136
9736,15368,16392
7944,13576,16648
6152,12808,17928
5896,11272,18696
5896,10760,18696
5640,10248,18440
5128,9992,18696
5384,9992,18696
5128,9992,18440
5384,9224,18184
5128,9480,18184
4616,9480,18952
4616,9736,18696
5128,10248,18440
5384,10504,18440
4360,8456,19976
2312,4872,23560
-248,-1017,28167
-1016,-2809,29959
-5624,-14585,-25849
-6904,-16121,-23289
-5880,-10233,-24569
-504,3591,-32248
7432,22280,21512
15368,-24824,9992
21256,-8440,-248
25607,7432,-8439
29447,22792,-14583
29447,-31736,-17399
26119,-28408,-15351
18183,29704,-7415
8967,11272,5385
264,-13816,19976
-6648,25095,-32760
-10744,3591,-22264
-12536,-9721,-13305
-14072,-18681,-5625
-15352,-26105,519
-16631,-30201,6407
-17399,-31481,11783
-17143,-31481,15623
-15863,-29433,15623
-13815,-23801,11015
-12791,-21241,8455
-8695,-13561,-8185
-5880,-10745,-16633
-3832,-8697,-23801
-1528,-6137,-29945
520,-4344,30215
2312,-3576,26375
4104,-1784,22535
5640,8,17928
6152,264,14600
6664,520,13320
7176,264,13064
7688,264,12552
7944,520,11784
7944,776,11784
7944,1032,11784
8200,520,11272
8200,520,10760
7944,520,10760
8200,776,10760
8712,1032,9480
8968,1288,8200
9480,3336,7688
9992,4872,6920
10760,5640,5896
11016,5640,5128
11016,9224,2568
11784,12040,2568
12296,13576,1544
13064,15112,-248
14343,18184,-1528
14343,21256,-2296
14855,23048,-3320
15367,24840,-4600
15623,26632,-5368
16135,29192,-5624
16135,30728,-5880
16647,30984,-6392
16647,32008,-7416
16647,-31736,-7160
16391,-31224,-6648
15879,-31480,-5112
15879,-32248,-5112
15111,-32248,-4088
14343,-32248,-2552
14087,32008,-504
13831,30728,776
13832,29960,1800
12552,29448,2824
11528,27912,4872
11528,26888,5128
10760,24584,6664
10248,24072,7944
9224,23048,9224
8712,21512,9992
8968,21256,10760
9224,20744,11272
8968,19976,12296
7688,18696,13064
7176,17928,13064
6920,17672,13320
7432,17928,14344
7688,16392,14600
7176,15624,14344
6920,15624,14088
6920,15624,15112
6664,14856,16136
6664,14088,16136
6920,13320,16136
6152,13064,15880
5896,12808,15880
5896,11016,16136
5640,10504,16392
5128,10248,16648
4872,9736,16904
4616,9224,17160
4872,8200,17928
5128,7944,18184
4872,7944,18184
5128,7944,17928
5640,8968,17928
5896,9736,18440
6664,10248,18440
6408,11016,19464
6408,12040,20232
6408,12808,20488
6408,14088,20488
6920,15880,18696
8712,18184,16904
9992,19976,14600
10248,20744,13576
9992,21256,13320
9736,22024,13064
9224,22536,13064
9224,22536,13576
9736,23048,13832
9992,23304,14344
10248,22536,14600
10248,20744,14344
9736,19464,14344
9480,19464,15112
8712,18184,16904
7944,16136,16904
7176,14600,16648
6152,13320,17928
5384,11784,19208
4616,11016,19208
4360,9480,19208
4104,9480,19208
3848,9224,19720
3592,9224,19976
3592,9224,20232
3336,9224,20232
3336,9224,19464
3592,9480,19464
3848,9480,19720
3848,9224,19720
2568,7944,20488
520,4872,23304
-1784,-761,27911
-5368,-7417,-32505
-8184,-14329,-26105
-9720,-17657,-21753
-9464,-16377,-21497
-5624,-5113,-26873
-3576,775,-29944
9480,30984,16392
16648,-18168,5128
22024,-2040,-4088
25863,14088,-11511
28167,27144,-15607
26119,-32248,-14327
19207,30728,-8695
9223,16136,2825
-248,-6393,17160
-7416,31495,31240
-12280,6919,-22776
-15608,-8953,-13561
-17144,-19193,-5113
-17912,-27385,2055
-18679,-32505,8711
-20215,31751,14343
-20471,31495,18439
-19447,-32505,19719
-16887,-27897,16391
-14071,-21497,8455
-11255,-15097,-2553
-8440,-12537,-12793
-5880,-11257,-20473
-4088,-8697,-26105
-3576,-6905,-28409
-1272,-5625,28167
1288,-4856,24839
2824,-2552,20999
4104,-504,17159
4872,-760,15111
4872,-1528,14087
5128,-1784,13831
5128,-760,13831
4616,-1016,13063
4872,-1528,13063
4872,-2040,13063
4872,-1784,12551
5128,-1272,11271
6152,-760,11015
5896,-504,11015
5896,-248,9991
6152,-248,8967
6664,1800,8456
7688,3848,8456
8200,4616,7688
8712,5896,6152
9480,8968,4360
10504,11528,3336
10760,13320,3080
10760,13576,2056
11784,17928,-248
12807,21000,-504
13319,22792,-1272
13319,24072,-3064
14087,26120,-4088
14343,28680,-4088
14599,29960,-4088
14343,30216,-4856
14087,30728,-5368
13831,32520,-5112
13575,32520,-4088
13575,32264,-3064
13319,32264,-2296
12551,32008,-1784
12039,30472,264
11272,28936,2312
11016,27912,2824
10248,27400,4104
9480,26120,5640
9480,25096,7176
8968,23560,8200
8712,22280,8968
7432,21512,10248
6920,20232,12040
6920,19464,12296
6408,18440,12808
6152,17928,13576
5640,17416,14600
5384,16648,15368
5384,16392,15624
5384,15624,15624
5640,15368,16648
5640,14600,17416
4360,13576,17416
4104,13576,17416
4360,13064,17672
4360,12296,17672
4104,11528,17672
4104,11272,18440
4360,11016,18696
4104,9736,18952
3592,8968,18952
2824,8712,18696
2568,7944,18696
2824,7432,18952
3080,6920,19208
3080,6408,19208
3080,6408,19976
3080,6664,20232
2824,6408,20232
2824,6664,19976
3080,7944,19720
3592,9224,20488
3592,9480,22024
3336,10248,22536
4104,11784,22280
5128,13320,21512
5896,15368,19720
6408,16904,17416
6920,18184,15880
7176,19208,14856
7176,20232,14600
6920,20232,14344
6920,20744,14600
7688,21256,14856
7688,21512,15880
7944,20744,16648
8200,18952,16136
7688,17928,15880
7176,17416,16392
6664,16392,17160
6664,14344,18184
6152,12808,18952
3848,11528,18952
2824,10760,19464
2056,8200,21000
2056,7688,21000
1800,7688,21256
1288,7688,21000
1544,6920,21000
1544,5896,21000
1288,6152,20744
776,7176,20744
1032,6920,21000
1032,6920,21512
1032,6920,21256
776,6664,21256
8,4872,23560
-2296,519,27656
-6392,-6649,-32505
-9720,-13561,-26873
-11512,-18169,-21753
-12024,-18937,-19449
-9720,-11769,-22521
-3576,3335,-31224
5128,22024,21512
14088,-25592,10248
19208,-9464,1032
22792,5640,-7159
24839,11272,-9975
26119,30728,-14327
21255,32520,-9463
12039,21512,-247
1799,1544,12809
-6136,-23801,27656
-11512,15111,-24312
-15864,-5881,-14073
-18424,-17913,-6393
-19448,-26617,1543
-20727,-32761,8199
-22007,28935,14599
-22519,28423,19463
-22007,29959,21511
-20215,-31993,20743
-17911,-26617,14855
-15095,-20473,3847
-12279,-15865,-7161
-9464,-14073,-15353
-6904,-11769,-22265
-5112,-9465,-28409
-3320,-7161,31751
-760,-6137,28167
776,-5368,24071
1800,-3832,20231
2568,-2808,18695
3592,-2552,16135
3592,-3320,16135
3848,-3320,15367
3592,-3064,14087
3592,-3064,14343
4360,-3320,14599
4616,-3320,14087
4360,-3064,13575
4360,-3064,13319
4360,-2808,12807
4616,-2296,12039
5384,-1272,10503
6408,520,9992
6408,1800,9480
6408,2824,8712
7944,4616,7176
8456,6664,6152
8200,8968,4616
9480,11272,3848
10760,13832,2568
11528,16136,1032
11528,18440,-504
11783,20488,-1016
12551,22280,-1784
12807,23304,-2296
12807,26632,-3320
12807,28168,-3320
13319,29192,-3576
13063,30728,-4344
13575,31496,-4344
13575,31496,-3832
13063,31752,-2808
12551,31752,-1528
12295,30984,-1272
12039,29960,520
11784,29960,2824
10504,28936,3848
9736,27144,4104
9480,25864,5640
9224,25352,8200
8456,23816,9224
7432,22792,10248
7176,21256,11016
7432,20488,12552
6920,20232,13832
5896,18952,14088
5896,18440,15112
6152,17416,16392
5384,16392,16648
4360,15624,16392
3848,14856,16648
4360,14600,17416
4616,14856,18696
4872,14088,18952
4104,13064,17928
3592,12296,17672
3336,11528,18440
3080,11016,19464
2824,9992,19464
3080,9480,18952
3080,9736,19208
2824,8968,19208
2568,7944,20232
2568,6920,20488
2312,7176,20488
2312,6920,21000
2056,6408,21000
2312,5384,21000
2568,5128,21256
2056,5384,21256
1800,6664,21256
2568,6664,21512
3336,7688,22536
3336,8712,23048
3336,9480,23304
3336,10760,24328
3592,11528,24072
4872,13320,23048
6152,15624,20232
6664,17672,18184
6664,18440,16904
6920,19208,16392
7432,20232,16392
6920,20488,16136
6408,20488,16392
6408,20488,16904
6664,20488,17416
7432,19720,17416
7432,18184,17416
6664,16392,17160
6152,15880,18184
5896,14856,19208
4872,12552,19208
3848,10504,19720
2568,9480,20488
2312,9224,21768
1544,7688,22280
776,6408,22024
520,5896,22024
520,5896,21768
520,5896,22280
264,5896,22536
264,6152,22536
520,5896,22536
520,6152,22280
776,6664,22280
776,6920,22024
8,5640,23048
-1784,2055,26120
-4600,-3065,30471
-7928,-8953,-29945
-10744,-16121,-23801
-12024,-19705,-19449
-11768,-17145,-19705
-7672,-5369,-25593
8,11528,30216
8456,29192,18184
15112,-19960,5896
20232,-3576,-3064
24327,12808,-9463
26375,25096,-13047
23815,30984,-12279
16391,28424,-6391
6919,13064,6153
4360,6152,10761
-9976,27143,-30968
-14328,4103,-19192
-16888,-11001,-9465
-18168,-22009,-1017
-19448,-30457,5639
-20727,30215,12039
-21751,29191,18695
-22007,29191,23303
-21495,30215,23815
-18935,-30457,18951
-15863,-23289,11015
-12535,-17657,263
-9975,-15609,-10489
-7160,-13817,-18681
-5112,-10745,-24569
-3576,-8185,-29433
-1528,-7929,31239
776,-6904,26631
2824,-4344,22791
3080,-2808,19463
4104,-2808,17159
4360,-4344,15879
4104,-4088,16135
3848,-3832,16135
3848,-3832,15623
4104,-4600,15111
4616,-4344,14599
5128,-4600,14343
5128,-3832,13575
5384,-3320,12551
5640,-3320,12295
5640,-2808,11527
5896,-1784,11015
6664,-248,10503
7944,1288,9736
8712,3080,8712
8968,5128,7176
9736,7176,5640
10504,9224,4360
11272,11528,3848
11016,13832,2568
11528,15880,1288
12296,17928,-248
13063,20232,-760
13319,22536,-1528
14087,24840,-2552
14599,26632,-3320
14599,27400,-3064
14599,28936,-3064
14855,29448,-3064
14855,30472,-3064
14855,30728,-3064
14343,30472,-1784
14599,30728,264
14088,30216,776
13320,29448,1288
12552,27656,3336
11528,26632,4616
11272,26120,5896
11272,24840,6664
9992,23048,7944
9224,22024,9480
8968,21256,11016
8712,20232,11528
8712,18952,12552
7688,17928,14344
6920,17416,15112
6920,16904,15368
7176,15368,15880
6408,14856,16392
5896,14600,16904
5896,14088,16904
6152,13064,17416
5896,12296,18184
5640,12552,18696
4360,11528,18696
4616,10760,18440
4872,9992,18952
5128,9480,19464
4616,9480,19208
4616,8968,19464
4360,8200,20232
4616,7176,20744
4360,6920,21000
3592,6408,20744
3080,5384,21000
3592,5128,21256
3592,4872,21512
3336,4616,21768
3592,4360,21512
3080,4360,21512
2824,4872,22536
3848,5896,23048
4616,6920,23048
4360,7432,23304
3848,7944,24072
4104,9480,24840
4616,11016,24328
5896,12296,22024
6152,12808,21256
6664,15112,18440
6920,16136,17160
7432,16648,16904
7688,17416,16648
7688,18184,16904
7944,18440,17672
7688,18440,17416
8200,17672,17928
8200,15880,17672
7432,14600,17672
7432,14088,17928
6920,12808,18696
6408,10760,19464
5896,8968,20232
4872,7688,20744
3080,6152,22280
2824,4872,23048
2568,4104,23304
2568,3848,23048
2568,3592,23304
2312,3592,23560
2312,3336,23816
2568,3336,23560
2568,3336,23048
2824,3592,23304
2568,3848,23304
2568,3848,23048
2312,3080,23048
1288,1288,25096
-504,-2553,28679
-3576,-8441,-31737
-7160,-15609,-25593
-9976,-21497,-19961
-10488,-22265,-17657
-8184,-15353,-19705
-2552,-1529,-27385
5640,16392,26376
14344,-30968,14088
21000,-14328,4104
25096,776,-4599
28167,15624,-10743
28679,26888,-12791
25095,30216,-9975
17159,21256,-1015
6407,2312,12297
-3064,-22521,26888
-9208,16903,-25592
-13304,-4601,-14841
-15864,-17913,-5625
-16632,-21241,-3065
-18168,32263,8455
-19191,27911,13831
-19703,26375,19719
-19703,26631,23047
-18167,29703,22535
-15863,-31225,17159
-13303,-26105,7943
-10999,-22265,-2553
-8440,-19705,-11001
-5624,-17145,-17913
-3576,-15353,-23801
-2552,-13817,-28921
-248,-12793,32007
2312,-11256,27655
3592,-9208,23559
4104,-8952,20487
4360,-9208,19463
4872,-9208,19207
5384,-8440,18183
5384,-8440,17671
5640,-8952,17159
6408,-8952,17415
6664,-9208,16903
6664,-8952,16647
6408,-8952,16135
6408,-9208,15879
6664,-8696,14855
6664,-7416,14343
7944,-5880,13575
8456,-5112,12551
8712,-4088,12039
8968,-1784,11271
9992,264,9736
10760,2312,8456
11272,4360,7176
12040,7176,6152
13320,10248,5128
13320,12040,3592
13064,13832,2312
13064,15624,1800
13832,18184,520
14600,20232,8
14856,21768,-248
15111,23304,-760
15111,24840,-504
15367,25608,-1016
15367,25608,-1016
15367,25864,264
15112,25608,1800
14344,25352,2312
13832,24584,3336
13576,24072,4104
13576,23048,6408
12808,22024,7432
12296,20744,8200
11528,19720,9480
10760,18696,11272
10248,17416,12552
9736,16648,12808
9224,15112,13832
9224,14856,15624
9224,14088,16904
8712,12808,16648
8200,11784,17160
7688,11528,18184
7176,10760,19208
6920,9736,19208
6664,9480,18952
6664,9480,20232
6664,8968,21256
6920,8200,21000
6664,7432,20744
6152,7176,21000
6152,6152,21000
6152,5640,21256
5128,4616,22024
4616,4104,22280
4616,3336,22280
5128,3080,22024
5128,2312,22536
4872,1800,23048
4360,1032,23048
4104,264,23304
3848,8,23304
4104,-504,23559
4616,-248,23303
4360,-248,23303
4360,264,23816
4872,2056,23816
5128,2824,24072
5128,2824,25352
5384,3336,25864
5640,4872,26376
6920,6920,26120
7688,8712,24328
7944,10248,21256
8456,12552,18952
9736,14600,18696
9992,14856,18440
9992,15112,17672
9480,15624,17672
9736,16648,18696
9992,16648,19976
10248,15880,19720
10504,14856,18952
9992,13320,18696
9224,11784,19720
9480,11528,21256
9480,9992,21256
8456,7432,21256
7432,5640,22280
6152,4616,23560
5384,3592,23816
5640,2312,24072
4872,1800,23816
4104,1800,24840
4104,2056,24840
4104,1544,24072
3848,776,24072
3848,520,24328
4104,776,24328
4104,1288,23816
3848,1544,23560
3848,1288,23560
3592,776,23816
1800,-3064,27399
-504,-7673,31751
-4344,-14073,-28665
-7416,-20985,-22777
-8696,-24057,-18937
-8184,-20729,-18937
-4344,-9977,-23801
3336,7688,31752
11528,26120,19208
19208,-21752,7432
25096,-4344,-1272
29191,11528,-8951
30727,24840,-13815
29447,32008,-14071
22791,28680,-7927
13575,13832,3337
3336,-10744,17928
-5112,27399,31752
-10488,4359,-21752
-13560,-12281,-11769
-15096,-23545,-4089
-16376,-31225,1031
-17143,29703,6663
-17655,27655,11783
-17655,26631,13575
-17399,27399,17671
-16119,30727,15623
-13815,-29689,10247
-10999,-25337,2567
-8695,-22521,-6393
-6648,-20473,-13305
-4344,-17401,-18937
-2552,-15609,-23545
-504,-15353,-29689
1288,-13816,31239
3336,-11512,27655
4872,-9976,24583
5384,-9720,20999
5896,-9720,19719
6408,-9464,19719
6408,-9464,19719
6664,-9464,18695
6920,-9464,18439
6920,-9464,18183
6920,-10232,17927
6664,-10744,16647
6920,-10488,16391
7176,-9464,16135
7944,-8952,15879
7944,-8696,15367
8200,-6648,13575
8968,-4600,13319
10248,-2808,12551
9992,-1272,11015
10760,520,8968
11016,2312,8200
12296,5128,7688
12552,6664,6408
12808,8456,4872
13576,11272,3592
14344,14088,3592
15112,16648,2824
15624,18696,1032
15624,20488,8
15880,22280,8
15880,23560,8
16136,24328,8
16136,24840,-248
15879,25352,776
15624,25352,2312
15368,25608,2824
14856,24584,2824
13832,23560,4360
13576,22792,6408
13320,22792,6664
13320,21512,8456
12552,20232,9480
11272,19208,11272
11528,18440,12296
10760,17416,12552
9736,15624,13320
9224,14600,15624
8968,13832,16648
8712,13064,16648
8712,12552,16648
7944,11272,17416
7688,11272,18696
7944,10760,19464
7944,9992,19464
7176,8968,19464
6408,8456,20232
6664,8456,21000
6664,8200,20744
6920,7176,20232
6920,6664,20488
6408,6408,21000
5896,5896,21512
5896,4872,22024
5896,4360,22024
5128,4360,21768
5128,3080,22024
5384,2312,21768
5384,1800,22792
5384,1288,23048
5128,1032,22536
4872,776,22792
5384,1032,22792
5640,1544,23304
6408,3080,23560
6664,4360,24072
6408,4104,23816
6920,5128,24328
7176,6920,24328
7432,8712,23304
8712,10248,20744
9736,12040,18440
9992,13576,17672
9992,15368,17160
10504,15624,16136
11016,16392,16136
11272,17160,16648
11272,18184,17160
11272,17928,17160
11272,16904,17416
11272,16136,17416
10760,14344,17416
10248,13832,18184
9736,12296,18696
9480,11016,19720
9224,9736,20232
8200,8200,21000
6408,6408,22536
5128,4872,23304
5384,4616,23304
5128,4616,23304
5128,3848,23560
5384,3336,23560
5384,3592,23816
5640,3592,23816
5896,3592,23816
5896,4104,23560
5640,4360,23816
6152,4872,23560
6152,4360,23304
4616,2824,24328
2568,-1272,27399
-1272,-7161,32519
-4344,-14329,-27385
-6904,-19961,-22777
-7928,-21753,-21497
-6648,-15609,-21497
-760,-1785,-27641
7688,16904,26632
15368,-30456,13576
21512,-13560,2824
26632,3336,-4599
30471,19976,-11767
31239,32008,-16119
28167,-29176,-15607
20743,28680,-7159
10759,10248,5897
1544,-15608,20232
-5880,22279,-32248
-10488,7,-19704
-12792,-13561,-10489
-14584,-23289,-4089
-15352,-30457,1287
-16631,30471,6663
-17399,29447,11783
-17399,29447,14599
-16631,30727,14599
-14583,-30201,11783
-12279,-24825,5639
-10231,-20729,-2809
-9720,-20217,-6137
-5112,-15609,-17401
-3320,-13561,-22777
-2040,-11769,-28409
8,-11000,31751
1800,-9976,27399
3336,-7672,24327
4360,-6136,20743
4360,-5880,17927
4872,-6136,17415
5896,-6392,17671
5640,-6136,16903
5896,-6392,15879
5384,-6904,15367
5128,-6648,15367
6152,-6136,15367
6408,-6136,14343
6152,-5624,13575
6408,-4856,13575
7176,-4088,13063
7688,-2808,12039
8200,-1272,11015
8456,520,10248
8456,1544,9480
9224,3592,8456
9480,4616,7432
10760,8712,5384
11528,11016,4872
12040,13320,3336
12808,16392,1544
13832,18696,1032
14344,20744,264
14344,23304,-1016
14599,25096,-2296
15623,27144,-2296
15367,28680,-2808
15367,29448,-3576
15623,30472,-3320
15879,30728,-3576
15623,31496,-2552
14599,31496,-1784
13831,30984,-504
13831,29960,8
13576,29192,1032
12552,28424,2824
11528,27656,4104
11528,26120,5128
11272,24840,6408
10248,24328,7432
9480,23048,8712
9480,22024,9224
9224,20488,10760
8712,19976,11784
8200,19720,12552
7688,18184,13064
7432,17672,13576
7176,17160,14088
6408,16904,15112
6408,16392,15624
6664,15368,15624
6664,15112,16136
6152,15112,16136
6152,14344,16392
6408,13064,16648
6408,13320,17160
5640,13320,17160
5640,12552,17928
5896,12040,18184
5896,11272,18184
5640,10760,18184
5384,10504,18440
4872,9224,18696
4616,8968,18952
5128,8712,18952
5384,8968,19464
5384,8456,19464
5128,8456,19208
5128,9480,19208
5896,10760,19976
6408,11272,20232
6408,11016,20488
6152,11528,21256
5896,12808,21000
6920,15112,18440
8456,16392,16136
9224,17928,13832
9224,18952,13064
9480,20488,12808
9480,20488,12808
9224,21000,13064
8968,22024,13832
9480,22024,14344
10248,22024,14344
9992,21768,14088
9992,20744,13576
9736,19464,14600
8968,18696,15368
8456,17672,16904
7944,16136,17160
6920,14344,17672
6152,13320,18440
5128,11784,19464
4872,10760,19208
4360,9992,19208
3848,9480,19208
3592,9224,19464
3848,9480,19464
3848,9736,19208
3592,9736,19464
3592,9736,19464
4104,9736,19208
4872,10504,19720
4616,10760,19976
3592,9224,21000
1288,5640,23560
-1272,7,27656
-4088,-6393,-31993
-6648,-13561,-26361
-8184,-16121,-23033
-7416,-12281,-23545
-2808,263,-29432
4360,18184,25352
11528,-29432,12808
17928,-12536,2056
23304,3848,-5879
24839,9224,-8439
28167,32008,-16375
26119,-27128,-16375
20231,-31480,-9719
11527,17672,2313
1800,-6392,16648
-5368,31751,29960
-9720,8199,-24056
-12024,-6393,-14329
-14328,-16889,-6905
-15352,-24825,-1017
-16376,-29433,4615
-17399,-30969,10247
-17143,-30969,13831
-16887,-29433,15111
-15095,-25337,11527
-12535,-19193,4871
-10231,-14329,-4857
-7928,-11769,-14841
-6136,-10233,-22009
-3576,-7417,-27641
-1784,-4857,-32761
8,-4088,27911
1544,-3320,23815
3336,-1272,20487
4360,264,19208
4616,264,14600
4872,264,13832
5896,520,13832
6408,520,13832
6152,776,12808
6152,520,12296
6152,8,12040
6152,8,12040
6152,8,12040
6408,8,11272
6920,520,10504
6920,2056,9736
7176,2824,8968
7688,3848,8456
8200,5384,6920
8968,7688,6152
9480,9480,5128
9992,11016,3592
10504,12808,2056
10760,14856,1032
11528,17416,264
12296,19720,-1016
12551,21768,-2552
12551,23816,-3576
12807,24840,-3576
13831,28680,-4600
14343,30216,-5368
14343,31240,-6136
14343,-32760,-6392
14599,-31992,-5880
14599,-31736,-5880
14343,-31992,-4856
13319,-32248,-4088
13063,-31736,-2808
13319,-31736,-1784
13319,-32504,-504
12551,30984,776
11272,29960,2056
11016,29704,2824
10504,27912,4360
9992,25864,6408
9224,24840,7432
8712,24840,8456
8712,24072,9480
8968,22536,10760
8200,21000,11784
7176,20744,12552
6664,19976,12808
6920,19208,13576
6920,18696,13832
5896,17672,13576
5640,17672,14600
5640,16648,14856
5640,16136,15112
5896,16136,15880
5640,15624,15880
5640,14600,15624
5128,14600,16136
4872,14344,16392
5128,13320,16392
4872,12808,16392
4360,11784,16648
4616,11528,16904
4360,10760,16904
4104,10248,16904
4360,9736,17416
4616,9736,17416
5128,10504,17672
5640,11272,18184
5640,12040,18440
5896,12296,19464
5640,12296,20232
5640,13064,20488
5896,14344,20488
6664,14856,19976
8200,17416,15624
8712,19208,13064
8712,20488,12808
8456,21256,13064
9736,22024,13064
9992,22536,12808
9992,23048,13576
9480,22792,14344
9224,22280,14344
9736,22024,13576
9480,21000,13576
9224,19208,13832
8456,18184,14856
7176,17160,15624
6920,15368,16136
5896,13576,16904
4872,12296,17928
4360,11784,18696
3848,10504,18952
3336,9736,19208
3080,9224,19464
2824,8968,19208
3080,8968,19720
3080,8968,19976
2824,8968,19720
2824,8968,19208
3080,8968,19208
2824,9736,18952
2568,9736,19720
1800,7944,21000
-248,3847,23560
-3320,-1785,28679
-6392,-8697,-30713
-8440,-15353,-24825
-9976,-17145,-22521
-8440,-12537,-23033
-3576,1031,-29688
4872,18952,24840
12296,-28920,12296
18184,-12536,1800
23304,3848,-6135
26887,19208,-12791
28167,30984,-16119
24583,-30200,-14839
16903,29704,-7159
7431,13064,5641
-1784,-12281,19976
-9208,25351,-32248
-13560,3335,-20728
-14584,-1529,-17401
-16376,-20217,-3833
-18168,-27897,2823
-19703,-31737,9223
-19959,32263,14855
-19703,32519,17927
-18679,-30969,17927
-17399,-26361,13319
-14071,-19193,4615
-9975,-13561,-5625
-7928,-12025,-15097
-6392,-10745,-22521
-4344,-7417,-28409
-2040,-5113,32007
-248,-5369,27399
1288,-4344,23303
3080,-2040,19719
4616,8,16648
5128,-248,14855
5128,-760,14599
5128,-760,13831
5384,8,13320
5128,-248,13319
5640,-1016,12807
6152,-1784,12807
6408,-1528,12551
6408,-1016,11271
6152,-760,10759
6408,-760,10503
6664,520,9736
6920,1544,8968
7432,2568,8200
8456,3848,7176
8712,5896,5896
9224,7944,4616
10504,9992,3336
11016,12296,2568
11016,14344,1288
11784,17160,-248
13063,19976,-1016
13575,21768,-1784
13575,24072,-3064
13575,26376,-3832
14343,28680,-4344
15111,30216,-4856
14855,30984,-5368
15111,32520,-5880
15367,-31992,-5880
15111,-31736,-5112
14855,-31736,-3832
14855,-31480,-3576
13831,-32248,-2552
13319,32520,-760
13319,31752,1288
13064,31240,2824
11784,29960,3336
11272,28680,5128
10760,27400,6920
9480,25864,7688
8712,24584,8456
8456,23304,9480
8456,22280,10760
8456,21768,12552
7176,21000,12808
6408,19464,13064
6152,18952,14088
5896,18696,15368
6152,17928,15368
6152,17160,15368
5896,16648,15112
5384,16904,15880
5640,16136,16392
5640,15624,16648
5128,14344,16392
4872,14344,16648
4616,14600,17160
4616,13576,17416
5128,12808,17160
5384,12296,17160
4360,11784,17928
4104,11272,18440
4104,10248,18440
4104,9736,18952
4104,9480,19208
3848,9480,19208
4360,9736,19208
5384,10248,19464
5640,11016,20488
5384,12296,21256
5128,12296,22280
4872,12552,22536
4872,12808,22280
5128,14088,21768
6408,16136,19464
7432,17672,16648
8200,18952,15368
7944,19720,15112
7944,20488,15112
8200,20744,15112
7432,21000,15112
7432,20744,15112
7944,21256,15880
8200,21512,16136
8456,20488,16136
8200,18184,16136
7432,16904,16648
6664,16392,17416
5128,14856,18184
4872,12808,18952
4104,11784,19208
2568,10504,20232
2056,9736,21256
1800,8200,21256
1800,7944,21256
1544,7944,21256
1288,7688,21256
1288,8200,21256
1288,8456,21512
1288,8456,21768
1288,8712,21512
1800,8200,20744
2056,8200,20744
1032,7688,21768
8,5128,24072
-3320,7,28168
-4600,-1785,28935
-9464,-13305,-26617
-11512,-18169,-21241
-11000,-15865,-20217
-7672,-6393,-24313
-1528,9479,32008
7176,27144,20232
14088,-21496,8200
19720,-5880,-1528
24071,10504,-9207
26887,24328,-13815
26119,-32504,-13559
19207,32264,-9207
10247,19720,1289
264,-2296,15880
-7928,-29945,30472
-13048,10503,-23032
-16376,-6905,-13305
-18424,-18937,-4601
-19448,-27385,2567
-20983,32263,8967
-22519,29959,14599
-22519,29959,19463
-21495,30727,21767
-19703,-30457,18951
-18935,-27641,16647
-13559,-17657,519
-10743,-15097,-9977
-8184,-13305,-17657
-6136,-10489,-24313
-3576,-8185,-29945
-1784,-6905,31495
-1272,-6905,27143
776,-4856,22791
2312,-2552,18695
2824,-2296,16647
3080,-2808,15879
2824,-3064,15367
2824,-2808,14343
3080,-2808,14343
3080,-2808,14087
3336,-3064,13575
3848,-3064,13063
4104,-2808,12295
4360,-2808,12551
4616,-2552,12551
4616,-1784,11015
5384,-504,10247
5640,8,9992
6152,1032,9224
6664,2056,8456
7688,5896,6408
8200,7944,5640
8968,9224,4360
9736,11784,3336
10504,14600,1800
10760,16648,776
11528,18696,520
12040,21512,-1016
12295,23560,-2552
13063,25864,-3064
13575,27400,-3064
13575,28424,-4088
13319,30216,-4344
14343,31752,-4344
14087,31496,-4088
13575,31752,-2808
12807,31752,-2552
12551,31752,-2040
12551,31752,-504
12295,29960,1544
11528,28936,2312
10504,27912,3336
8968,26888,4872
8712,25096,6152
8968,24584,6664
7688,23304,8200
6920,22536,9480
7176,21512,11784
6920,19720,12552
5896,18696,13064
5128,18184,13832
5128,17416,15368
5128,16648,16392
4872,15624,16648
4360,15368,16392
4360,14856,16136
4104,14344,17160
4104,14088,17928
3848,13576,17928
3848,13064,18184
3592,12296,18184
3592,11784,18440
3848,11528,19208
3848,11272,19208
3336,9992,19464
3080,9736,19720
3336,9480,19720
2568,8456,19464
2312,7176,19464
2312,7176,19464
2312,6664,19976
2312,6408,20488
2568,6664,20488
3080,7432,20232
3080,8456,21256
2824,8456,22024
2824,8712,22536
2824,9224,22792
2824,10760,22792
4104,12552,22280
5384,13832,19976
6152,14856,17416
6152,16904,15624
5896,17928,15624
6152,17928,15368
6920,17928,15112
6664,18952,14856
6408,19464,15624
6408,18952,16392
6920,17672,16648
7176,16904,16392
6920,15880,16136
5640,14856,17928
5128,13064,19208
5384,12296,18952
4616,10504,19208
3336,9736,19720
1544,7688,21000
1032,6152,22536
1032,5640,22792
776,5640,22536
520,5128,22280
520,4872,22280
264,4616,22536
264,4872,22792
8,4872,22792
8,5128,23048
-248,4871,22536
8,4360,22280
8,3848,23304
-1528,1287,25352
-4344,-3321,29703
-6904,-9465,-30457
-9464,-16121,-24825
-12280,-20729,-20473
-12536,-19193,-19705
-8952,-9465,-23801
-2040,7175,32520
6920,24840,19976
9224,29960,15880
19464,-7672,-1272
23815,8200,-8183
26887,22280,-13047
25863,30216,-13559
19463,29192,-8439
9991,16136,2569
8,-5368,17160
-7672,-31993,31752
-13560,8711,-22264
-16888,-8697,-12281
-18424,-19961,-4089
-18936,-28409,3079
-20215,31751,8967
-21751,29191,14855
-21751,28423,19463
-20983,28935,21255
-19959,-32761,18439
-17399,-26873,12039
-14583,-20985,1543
-11767,-18169,-8697
-9464,-16633,-16377
-7672,-14073,-22521
-5624,-11257,-28665
-3320,-10745,32007
-2552,-11001,31239
264,-7672,24071
1544,-6136,19975
2824,-5624,17927
3080,-6136,17415
2824,-6392,17159
3336,-5880,16903
3592,-5624,15623
3848,-5880,15367
3848,-5880,15623
3848,-5368,14855
4104,-5368,14087
4360,-5624,13319
4360,-5368,13319
4616,-5112,12807
4872,-4088,11783
5640,-2040,11015
6152,-248,10503
7176,776,9736
8456,2568,8200
8712,5896,6920
9480,8200,6408
9736,9224,5128
9480,11272,2824
10760,14088,1800
11016,15368,1800
11528,18440,520
12040,20488,-1016
13063,23048,-2040
13319,25096,-2296
13063,26120,-2552
13575,27144,-3064
13831,28424,-3320
13831,29704,-3320
13575,29960,-2808
13575,29448,-1528
13319,28680,-1272
12295,28424,-504
11527,28168,1288
11272,26632,3080
11272,25096,4360
9736,24328,5128
8968,23560,6408
8712,22024,8200
8968,21000,9224
8712,19720,9992
7432,19208,10760
7432,17928,12296
6408,16392,13576
6408,16392,14088
6664,16392,14088
6408,15112,15880
5896,14344,16648
5128,13320,16392
5384,13320,16648
5128,12552,17160
4360,11528,17416
4360,11016,17672
4360,10504,17928
4616,10504,17928
4360,9992,18184
4360,9480,18184
4360,8456,18696
4104,7432,18696
3080,7176,18440
3080,6920,18952
3336,5640,19208
3336,5128,19208
3336,4872,19208
3080,3848,19720
3080,3080,20488
2568,2312,20488
2312,2568,20744
2568,2824,21000
3080,3848,21256
3336,4360,21256
3848,5384,21256
3592,5896,22024
4360,7432,22792
4872,8712,22792
4872,9992,21768
5640,12040,19720
7176,14344,17416
7944,16136,15880
7944,16392,15624
7688,17160,14856
7432,17416,15112
8456,18696,15880
8456,18952,16136
7688,18696,16136
7944,17928,16392
7944,16648,15880
8200,15880,16136
8200,15624,16648
7944,13832,17416
6920,11528,18184
5640,10248,18440
4616,8968,19464
4360,7432,20744
3336,6408,21000
2824,5640,21000
3080,5128,21256
3080,4872,21256
2824,5128,21512
2824,4872,21512
2824,4360,21768
2568,4616,21768
2568,4616,21512
2568,4872,21256
2568,4872,21256
2312,4104,21768
776,1800,23816
-1528,-2809,27399
-4344,-8953,32519
-6904,-15865,-26873
-8696,-20473,-22009
-9464,-20217,-20985
-6648,-11001,-24313
-248,6151,-32760
8200,24328,19976
15624,-23544,8200
20488,-6904,-1272
24327,9480,-8439
27655,23816,-13815
27399,32008,-15607
25863,-31992,-15863
13575,20488,-2039
4615,-248,12040
-3064,-27641,26120
-9208,11783,-27640
-13560,-6137,-17401
-15096,-17401,-8953
-16120,-26873,-2297
-16888,-32505,3079
-18167,30471,8711
-18423,29959,13575
-17911,29959,16135
-16887,32007,14855
-15607,-28153,9479
-12791,-21753,1031
-9719,-18425,-8185
-7416,-16889,-15865
-5880,-14841,-22265
-3832,-11257,-28153
-2040,-9977,-32505
8,-9976,28679
1288,-8952,25095
2312,-6136,21511
4104,-5624,18695
4360,-6392,17415
4360,-6392,16903
4616,-5880,16135
4360,-5624,15367
5128,-5624,15367
5384,-6392,15111
4616,-7160,14599
4616,-6904,13575
4360,-6136,13319
5128,-5368,13063
6152,-4600,13319
6152,-4088,12807
6152,-3064,11015
6664,-1528,10503
7432,8,10248
7688,1800,9224
8200,3592,7432
8712,5896,5640
10760,8712,4872
11272,10760,4104
11272,12808,2056
11272,15112,520
11272,17416,264
11784,19720,8
12040,21256,-1016
13063,23560,-2552
13319,24584,-2296
13575,26888,-2296
13831,28168,-2296
13831,28424,-2552
14087,28424,-2296
13063,28168,-1528
12295,28424,-504
12039,27912,776
12040,27144,1800
11784,26888,2568
10760,25352,4104
10248,24072,5896
9992,22536,6920
9224,21000,7944
8456,19720,8968
7688,19208,10248
7688,17928,11272
7688,17160,12040
7432,16392,12552
6664,15368,13320
6408,14856,14088
5128,13320,14344
4872,12808,15368
4616,12552,16392
4360,11784,16392
4360,11272,16392
4104,11016,16904
4360,11016,17160
4360,10248,17928
4616,9224,18184
4360,8968,18184
3336,8456,18184
3592,7944,18696
3848,7176,18696
3592,6664,18696
3080,6408,18952
2824,5640,19208
2824,4872,19464
3080,4360,19208
3080,3848,19208
2824,3336,19976
3080,2824,20488
3080,2824,20232
3080,3080,20232
3336,4104,20744
3848,4872,21256
4104,5128,21000
4104,5640,21512
3592,6152,22536
3336,7688,22280
4104,8200,22024
6664,10760,18696
6664,12552,16392
6920,14600,15880
7432,16136,15112
7688,16904,14344
7688,17416,14088
7688,18440,15112
7432,18696,15368
7432,18440,15368
7688,17672,15112
7944,16648,15112
7432,15368,15880
6408,14344,16392
6408,13320,16904
6408,11528,17416
5128,10248,18440
4360,9224,19208
3336,7688,19464
3080,6408,20232
2824,5896,21000
2312,5384,21256
2056,5128,21000
1800,4872,21000
1800,5128,20744
2312,5128,20488
2312,4872,20232
2312,5128,20232
2056,5384,20488
2312,5640,20488
2056,5128,20232
520,2312,22280
-1528,-2297,25863
-4088,-7929,30983
-6648,-15353,-29177
-9464,-20473,-24569
-9976,-20217,-23289
-6904,-11257,-26617
-760,5639,30216
6408,24328,17928
13320,-24056,6664
18952,-6904,-2552
23303,9736,-9975
26375,24840,-15607
25863,-32760,-17399
21511,-31992,-13815
13831,22792,-4599
4359,1288,8457
-4088,-26617,22792
-9720,12807,-30456
-11256,6663,-26360
-15096,-17401,-12281
-16120,-26105,-5625
-16632,-31993,263
-18423,30983,5127
-18679,30471,10247
-18679,30727,12295
-17655,32263,12039
-15095,-27897,7431
-12791,-20985,-1017
-10488,-17145,-10233
-8440,-16121,-17145
-6904,-14329,-23545
-5112,-11001,-29433
-3576,-9721,31239
-2040,-9465,27143
264,-7672,23815
1032,-5368,19975
1800,-3832,16647
2824,-4600,15367
3080,-5112,15367
2824,-4856,14855
3080,-4088,14343
3336,-4088,13831
3848,-4856,14087
4104,-4856,13575
4872,-4600,12295
4616,-4088,12551
4616,-3576,12295
4872,-3064,11527
5128,-2552,10503
5384,-1528,9735
5896,8,9480
6664,1800,8968
6920,3592,7432
7432,6152,6152
7944,8456,5640
8968,10504,4872
9480,12552,3080
10248,15624,1800
10504,17928,776
11784,20232,8
11784,22280,-1272
12039,24584,-2552
12807,26888,-3064
13063,28168,-2808
13319,29192,-3064
13063,30472,-3832
13319,30984,-3832
13063,31240,-2808
13063,31240,-2296
12807,31496,-1528
12551,30984,-760
11783,29704,520
11016,28168,2056
10760,27912,3080
10248,27144,3848
9224,25352,5384
8456,23816,6920
8456,23304,7944
7944,22792,8456
7176,21256,9480
6920,20232,11016
6920,19464,12552
6408,19208,12808
6152,18440,13576
5640,17160,15112
5384,16648,15368
5128,16648,15368
5128,15880,15368
5384,14856,16136
5128,14344,16648
4360,14600,16648
4360,14344,16648
4872,13064,17160
4616,12808,17416
4616,13064,17416
4616,12552,17416
3592,11016,17672
3592,9736,18440
3336,9480,18440
3080,9224,18440
3080,8456,18696
2824,7688,18952
2568,7688,18696
3080,7688,18696
3592,7688,18952
3336,7944,19464
3336,7688,19208
4104,7944,19208
4360,9480,19720
4104,10504,20232
4104,10248,20744
4872,11016,21000
5640,13320,19976
5896,15112,18440
6664,16136,16136
7176,17416,14088
7688,18952,13320
7944,20488,13320
7944,20744,13064
7944,21000,13320
8456,22024,13832
8968,22536,15368
8712,22024,15368
8968,21000,15624
8968,19464,15624
8712,18696,15368
7176,17672,15880
6920,16392,17160
7176,14344,18184
5640,12808,18184
4360,12296,18952
3336,10504,19976
2568,8968,20232
2824,9224,20232
2312,8712,19976
2568,8712,19976
2568,8200,20232
2312,8200,20232
2568,8456,19976
2568,8456,20488
2568,8712,20744
2824,8968,21000
2824,8968,20744
2312,8712,20744
-760,2055,25096
-3576,-4089,31239
-6392,-11257,-28409
-8696,-16633,-24057
-10488,-17657,-22521
-8184,-10489,-24313
-2296,5127,-31224
5896,24584,21512
13064,-23288,8712
18696,-7672,264
23304,8712,-6647
26887,23304,-13303
26631,-31992,-15607
22023,-30712,-12023
14855,24840,-2551
5127,6408,9481
-3320,-20473,23304
-9208,18183,-28920
-13048,-2041,-17913
-14328,-13817,-9721
-16120,-22009,-3577
-17912,-28665,2823
-18679,-32249,9735
-18935,32263,14343
-19191,32519,14855
-17655,-29177,14855
-15351,-24313,10759
-11767,-17657,1799
-9463,-12537,-8953
-7416,-11001,-18169
-5624,-9721,-23545
-3320,-6649,-28921
-1528,-4345,30471
264,-3576,25607
1544,-3064,22535
3336,-504,19975
4616,1032,16392
4360,520,14088
4360,-760,13831
4616,-760,14855
5128,-248,15111
5384,-248,13319
4872,-1016,12551
4872,-1016,13063
5128,-1272,12807
5640,-760,12807
5640,-248,11783
6664,776,11016
7176,1288,11016
6920,1288,10760
7688,4104,8712
7944,5896,7688
8968,7432,7176
9736,8968,5896
9992,11016,4616
10248,13832,3080
11272,15880,2056
12296,18440,1032
12040,20744,-504
12039,23048,-2040
13063,25096,-2808
13575,26888,-3064
13831,28680,-4088
13831,30728,-4600
14343,32264,-5112
14599,-32760,-5368
14855,-32248,-5368
14343,-31992,-4600
13831,-31736,-3064
13063,-31992,-2808
13063,-32504,-1528
12807,31752,-248
11527,30984,1032
11272,30216,2568
11272,29960,2824
10760,27912,5128
10760,26888,6664
9480,25608,7432
8968,24584,8712
8456,23304,9992
8200,22280,11272
7432,21512,12296
6920,20488,12808
6920,19720,13832
6664,18440,14344
6408,17928,14856
6152,17416,15368
6152,17160,16136
5896,16392,16392
5640,16136,16392
4872,15624,16136
4872,14856,16136
4872,14600,16648
4616,14344,17160
4616,13576,17160
4360,12808,17160
4104,12552,17416
4360,11272,17928
4104,11016,17928
3592,10760,17672
3336,9736,17672
3592,9224,18184
4104,8712,18696
4104,8200,18440
4104,7688,18952
3592,7688,19208
3592,8712,19208
4616,10248,19208
5384,11016,19464
5384,10760,20488
5384,11528,21256
5640,13320,21256
5896,14088,21256
6664,15112,19976
7176,16904,17416
8456,19208,15112
9224,21000,15112
8968,21000,14600
8712,21000,14088
8968,21768,14088
8456,22792,14088
8456,22536,15112
8968,22024,14856
9224,21000,14856
8968,20744,14600
8712,19208,14856
8200,18184,15624
7176,16392,16904
6408,14856,17416
5896,13576,17416
4872,11784,18440
3592,10248,19720
3080,9480,20232
3080,9736,19976
3080,9224,19976
2568,8456,20232
2056,8200,20232
1800,8200,20488
1800,7944,20488
2312,8200,20744
2312,7944,20744
2568,8200,19976
2312,8712,20232
2312,7176,21512
520,3592,24584
-3064,-2297,29447
-6136,-9465,-30201
-8184,-15865,-24569
-9720,-18425,-21241
-9976,-18425,-20217
-4344,-2041,-27385
2568,15112,26888
11016,-32248,14344
17416,-15096,2824
21768,520,-4855
25607,15624,-10743
27911,28168,-15095
24839,-31480,-13815
17159,29704,-6647
7175,12296,5897
-2040,-12025,20232
-8696,26631,-32504
-13304,4103,-20728
-15864,-11257,-10745
-16888,-21241,-3833
-17912,-27897,2311
-18679,-31993,9223
-19959,31495,15623
-20215,31495,19719
-18935,-31993,18951
-17399,-27385,14599
-14583,-21241,6407
-11511,-15609,-3833
-8184,-12793,-13561
-7416,-12281,-16377
-4600,-8697,-26873
-2808,-6393,-31737
-504,-5369,29191
1544,-4344,24839
2568,-2552,21511
3848,-1016,18183
5128,-1016,15879
5640,-1272,15367
5384,-1272,15111
4872,-1272,14599
4872,-1528,14087
4872,-2552,13319
4872,-2808,13575
4872,-2808,13319
4872,-2552,12295
5640,-2296,11271
5640,-2040,11527
5640,-1528,11015
6152,264,10248
6664,1288,8712
7176,2568,8200
7688,4104,6920
7688,6152,5896
8712,8456,4616
9480,8968,4104
10504,13064,2568
10760,15624,1544
11528,17672,8
12552,19976,-1016
13063,22024,-1528
13063,24328,-2552
13831,26632,-3320
13575,28168,-4088
13831,29192,-4088
14343,30472,-4344
14343,31240,-4344
13575,31752,-4344
13319,32008,-3064
13319,32008,-1528
13319,32008,-760
13319,30984,264
12296,29704,776
11528,29448,2824
11272,28424,4616
10248,26376,4872
9224,24584,5896
8712,23560,7688
7944,22536,9224
7688,21768,9992
7176,21000,10504
6152,19464,12552
6152,19464,13832
5384,18184,14088
5384,16904,14600
5128,16392,15624
5128,16648,16392
5384,15880,16648
4616,14344,16648
4616,14088,16648
4360,14344,17160
4616,14088,17928
4616,13576,17928
4104,12296,17672
4104,12040,18184
4360,12040,18696
4360,11528,18696
4104,11016,18440
4104,10248,18952
3848,9480,19208
3336,8968,19208
3080,7688,19208
3080,6920,19208
3080,6664,19976
2824,6408,20232
3080,6408,20232
3080,6408,20232
3336,6408,20232
3336,6664,20744
3848,8200,21000
4360,9480,21256
4104,9480,22280
4104,9992,22792
4616,11784,22536
5384,13320,21256
6152,15624,19208
6664,16648,17160
7176,17672,16136
7176,18696,15368
7432,19464,14600
6920,19464,14344
6920,20232,15112
7688,20744,16392
8200,20744,16392
7944,19208,16136
7688,17416,16136
7688,16648,16392
6664,16392,17160
6152,14856,17928
6152,12808,18440
6152,12552,18952
4360,10504,20744
3080,8968,21256
2312,7688,21256
2568,7176,22024
2312,6920,22536
1544,6664,22792
1800,6664,22792
2056,6664,22024
2312,6920,21768
2312,6920,21512
2056,6664,21256
2056,6664,21256
1544,6920,21768
1288,6152,22792
-1016,2567,25352
-3320,-2553,29447
-6904,-9977,-30201
-9464,-16889,-24057
-11000,-19705,-20217
-10744,-17145,-19961
-6904,-5625,-25081
264,12040,29704
8968,29960,16648
16136,-19192,5640
17928,-14328,2568
25352,12808,-9463
27399,26376,-13559
24583,31752,-13047
17671,28680,-6391
7687,13576,5641
-2296,-10233,19464
-9464,27655,-32504
-13560,3847,-20216
-16632,-12537,-10489
-17912,-22265,-2553
-18936,-29689,4359
-20471,31239,11015
-21495,29191,17159
-21751,29191,21255
-20215,31495,21767
-18679,-29689,18183
-16119,-23801,9223
-13047,-18425,-1529
-10232,-15097,-11769
-7928,-13049,-19449
-5880,-10745,-24825
-4088,-8953,-30201
-1784,-7673,30215
520,-6392,26119
776,-5368,25095
2824,-3576,19207
3592,-3320,16647
3592,-3576,15623
3336,-3320,15879
3336,-3576,15623
3592,-3320,14343
4104,-3832,13575
4360,-3832,13831
4616,-3576,13575
4872,-3320,13575
4872,-3320,13319
4616,-3320,12551
4616,-2808,11527
5384,-1016,11271
6152,264,10504
6408,1288,8968
6664,3080,7944
7176,4872,7432
8200,7176,6664
8712,9224,4616
9480,11272,3336
10504,14088,2824
11272,16648,2056
11784,18952,264
11528,19208,-760
12039,22792,-2040
12551,25096,-2296
12551,26376,-3576
12551,27912,-4088
12807,28680,-4344
13319,30216,-4088
13319,30984,-3576
13063,31240,-3064
12807,31240,-2040
11783,30216,-1016
11271,29704,-248
11015,29192,1032
11016,28168,2568
10760,26888,3592
9224,25864,4360
8200,25096,6152
8200,24072,7944
8456,23048,8712
7432,21256,9992
6152,20232,10760
5896,19464,12296
5640,18952,13064
5640,17928,13576
5640,16904,14600
5384,16648,15112
5128,15624,15880
4616,14856,16136
4360,13832,16392
4360,14088,16904
4104,13576,17928
4104,12808,18440
3848,12296,18184
3848,11784,18184
3592,11528,18952
3592,10760,19208
3336,9992,18952
3592,9992,19720
3080,8968,19720
2568,8200,19976
2824,7432,19720
2824,6664,19720
2056,6408,19976
1800,5640,20488
1800,4616,20488
1544,4104,20744
1544,3848,21256
1544,3848,21256
1800,3592,21256
2312,4104,21512
2824,5384,21768
3080,7176,22536
3336,6920,23304
3080,7944,23816
3080,9480,23816
3080,11016,24072
3848,12296,23048
5384,13832,20744
6408,15880,18184
6408,17160,16904
6408,17672,16136
6152,17672,16136
6152,18952,16136
6664,19464,16648
6920,19464,17160
6920,19208,17416
7176,17672,16904
6920,16904,16904
6664,15368,16904
6408,13832,17672
5640,13064,18696
4872,12040,19208
4360,9992,19464
3336,8712,20488
2568,7688,21768
2056,7432,21768
1544,5896,22024
1288,4872,22024
1288,4872,23048
1032,5128,22792
776,4616,22024
776,4104,22024
1288,4360,22280
1800,4872,22024
2056,5384,21768
1800,5384,22024
1288,3848,23304
-760,1031,24840
-3320,-3321,28679
-6392,-9465,-31481
-8952,-16889,-24569
-11256,-21753,-20473
-11256,-19193,-20729
-7416,-8441,-23801
264,8200,-32760
7944,25608,19464
14856,-22776,6920
20744,-5368,-1272
25607,11016,-7927
27655,23560,-13303
27655,26888,-15095
19719,29960,-8951
11015,17160,2057
1288,-5112,16392
-6904,32519,29704
-12536,8199,-23800
-15864,-8441,-13561
-17144,-19705,-5369
-17912,-28153,1287
-18679,32007,7175
-19447,29959,13063
-19703,29191,18439
-19703,29447,19463
-18423,-32505,16647
-15351,-26361,10503
-12023,-20985,1287
-9463,-17657,-8697
-7672,-15865,-16889
-5112,-13305,-22777
-2808,-10489,-27385
-1272,-9721,-32505
520,-8696,27911
2312,-6904,24327
3848,-4600,21255
4104,-4600,18183
4104,-5880,16903
4616,-5624,16391
4872,-4856,16391
4872,-5112,16135
4616,-5624,15367
4616,-5880,15111
4360,-6136,14855
4360,-5624,14599
4872,-5112,14087
4872,-5368,13831
4616,-5368,13063
6152,-3832,12807
6664,-2296,12039
6408,-1016,10759
6664,264,9736
7688,2056,8200
9224,4360,7432
9224,6920,6408
9736,8456,4616
10248,11016,3336
11528,13832,2568
11784,15880,1288
12040,17672,-248
12295,19464,-1016
13319,22024,-1272
13319,23048,-1528
13575,25096,-2296
13831,25864,-2296
13831,26632,-2040
13831,28168,-2040
13575,28168,-1784
13575,27912,-760
13063,27912,520
12552,28168,776
12808,28168,1544
12552,27144,3080
11528,25608,4872
10504,24584,5640
10504,24072,7176
9992,22792,8712
8456,20232,9992
7688,19208,11016
7432,18696,11272
6920,17160,12808
6408,15624,14344
6408,14856,14856
5896,14856,15112
5896,14344,15880
5896,13064,16648
5384,12552,16904
5128,12552,16904
5384,12808,17160
5384,12040,17160
5640,11016,17928
5128,10248,18696
4616,10504,18696
4360,9992,18696
4104,8968,18696
4360,7688,18952
4104,7432,19720
3080,6664,19464
3080,5640,19464
3336,4872,19976
3080,4872,20744
3080,4872,21000
3336,4104,21000
3848,2824,20744
3848,2824,20744
3592,2824,21256
3592,2312,21768
3592,1800,21768
3848,2056,21512
4104,2824,21256
4104,3336,21512
4360,4616,21512
4616,5640,21768
5128,7944,22024
5384,8712,22536
5384,9480,22792
5896,11272,22536
7176,13064,19976
7688,13832,17160
7944,15624,15880
8456,17416,15880
8456,18440,15368
8456,18952,15112
8456,19208,15112
8200,18952,15880
8712,19208,16904
8968,19208,16904
8968,17672,16392
8712,16392,16648
7944,15112,17160
7176,13832,18440
6920,12296,18952
5640,9992,19208
4872,8200,20232
3848,7432,21512
3336,6664,21512
3336,5128,21512
2824,4616,21768
2056,4616,21768
2312,4616,21512
2568,4872,22024
2824,4872,22536
3080,4872,22280
2568,4872,21512
2824,4872,21256
2312,4616,21512
2056,4616,21512
776,1800,23304
-1016,-2297,26887
-4344,-9209,32263
-7672,-16377,-27129
-8952,-21241,-23289
-9208,-20217,-22777
-6904,-11513,-25081
-504,5383,32264
7176,23816,19464
14088,-23800,6920
19720,-6904,-1784
23815,10248,-8439
26887,24840,-14327
27143,-31480,-17399
22791,-31736,-13047
20231,32264,-9975
5383,-1016,11016
-2552,-28153,24840
-8184,12295,-28408
-12536,-6137,-18169
-14072,-17913,-9721
-15096,-26105,-4089
-16376,-31481,1287
-17399,31239,6919
-17655,30471,11271
-17399,30215,13063
-16375,-32249,12039
-14839,-26873,7943
-12279,-22009,775
-10487,-18937,-8953
-7928,-16889,-16633
-5880,-14073,-21753
-4344,-12281,-27129
-2296,-10745,-32249
-248,-9721,28679
776,-7928,25095
2312,-6136,22023
3336,-5624,18439
4104,-5624,16135
4360,-5368,15879
4104,-5368,16135
4104,-5368,15623
4360,-5880,14855
4104,-6136,15111
4104,-6392,14855
4104,-6392,14087
4360,-5112,13575
4872,-4856,13063
4616,-5112,13063
5128,-4600,12807
6152,-2552,11527
6664,-1016,10759
6664,8,9736
7432,1544,8968
8200,4360,7944
9224,6920,6664
10248,8968,5128
10248,10760,4360
10760,13320,3336
11272,16136,1800
12040,18184,1032
12808,20232,520
12552,22280,-1016
13063,24328,-2296
13063,25608,-2552
12807,25608,-2808
14087,27912,-2808
14343,29448,-2808
14343,29960,-2808
13319,29192,-1784
12295,28680,-248
12295,28424,520
12296,27656,1032
12552,26632,2312
11784,25608,4360
10248,24328,5384
9992,23048,6408
9480,21512,7176
8968,20232,8968
8456,19464,10504
7688,18440,10504
7432,17160,10760
7432,16648,12552
6408,16392,13320
5384,15368,14088
5384,14088,14344
5640,13832,15624
5640,13832,16392
5384,13576,16392
5384,13064,16136
5384,12552,16392
5640,11784,17416
5640,11016,17416
4104,10504,17416
4360,10248,17928
4616,9736,18184
4104,8968,17928
4104,8456,17928
3848,7944,18184
3848,7432,18440
4104,6920,18696
3848,6152,18952
3336,5640,19208
3336,5128,19208
3592,4616,19464
3592,4104,19464
3336,3592,19464
3336,3592,19720
3848,3848,19464
3592,5384,19464
3848,6152,20232
4104,6408,20232
4616,7688,20488
5128,9480,20744
5640,10760,20744
5896,10760,21000
5896,13064,19208
6152,15112,16904
7176,16904,14856
8200,17928,13832
7944,18696,13576
8200,19720,13832
8200,20744,13576
7944,20488,13576
8200,20488,14344
8456,20232,14856
8456,19720,14600
8456,18440,14600
7432,16136,14856
6920,15112,15880
6408,15112,16648
6408,13832,16904
6152,11272,16904
4360,9480,18440
2824,8712,19464
2312,7944,19464
2568,6664,19208
2312,5896,19720
2056,6152,20488
1800,6408,19976
1800,6664,19208
1800,6408,19208
1544,6408,19208
1544,6664,19976
1544,6408,19976
1800,6408,19464
1800,5896,19976
776,2824,22536
-2040,-2553,27655
-5112,-9721,-32761
-7416,-16633,-27641
-9208,-20473,-23545
-9464,-17913,-23033
-5368,-6649,-27897
1800,12040,27144
9992,30984,14856
15624,-17656,4104
19976,-760,-4088
24327,15368,-11511
27399,28680,-15607
25863,-30200,-15351
19207,32008,-9719
10503,16392,1033
2056,-6904,13576
-5368,31239,27656
-8184,23047,32520
-13816,-8953,-16377
-14840,-19193,-9465
-16120,-26617,-2553
-17912,-31481,3335
-19191,32007,8967
-18935,31751,12295
-18679,32263,13831
-17399,-29433,12295
-15607,-23801,6151
-12023,-17913,-3321
-9720,-15353,-13049
-8184,-13305,-19449
-6136,-10745,-24825
-4088,-7929,-30969
-1528,-6905,29191
-248,-6137,25351
776,-4344,22791
2568,-2040,18951
3592,-2040,15623
3592,-2296,15367
3592,-2296,15623
3848,-2040,15111
3848,-1528,14343
4360,-1528,13831
4872,-1784,14087
4872,-1784,14343
4616,-1784,13575
4872,-1528,13063
5128,-1272,12807
5640,-1016,11783
5896,8,10760
6152,1288,9480
6920,2824,8968
7432,4616,8456
7432,5896,7176
7944,7944,5640
8200,10248,4872
8968,12552,3848
9480,14856,2312
9992,16904,776
10760,19208,8
11784,21768,-504
12039,23816,-1272
12295,25608,-2808
12551,27656,-3064
13319,29704,-2808
13319,30728,-3320
13063,31496,-3832
13063,32008,-3832
13319,32264,-3576
13575,32264,-2040
13063,32008,-760
12295,31240,-248
11527,30472,1032
11528,30216,2312
11272,29704,3848
9736,27144,4872
8968,26120,6664
8712,25864,7688
8200,24840,8968
7688,23560,10760
7432,22024,11016
6920,21256,11784
6920,21000,13064
6152,19208,14088
5384,18184,14344
5128,18184,14856
5128,17928,15368
5128,16904,15880
4616,15368,16136
3592,15112,16136
3848,15368,16392
3848,14856,16648
3848,13832,16904
4104,13832,16904
4360,13576,17416
3336,12808,17672
2568,11528,17672
2824,11272,17672
2824,11016,17928
2568,10248,17672
2312,8968,17672
2056,8200,18184
2312,8200,18440
2312,8200,18440
2312,7176,18952
2056,6152,18952
2056,6152,19464
2312,6408,19464
2312,6664,19464
2568,7944,19976
3336,8712,19976
3848,9992,19720
3592,10504,20232
3592,10760,21000
3848,11784,21256
3848,13576,20744
4104,15112,19208
5896,16904,17160
6664,17672,16904
6664,20232,14600
6152,21000,13320
6408,21512,12808
6664,22024,13832
6920,22536,14600
6920,22792,14600
7176,23048,14600
7176,22024,14600
6920,20488,14600
7176,19208,14856
6920,17928,15368
5640,16904,16648
4360,15112,16904
4360,13320,17416
3848,12040,18440
2312,11016,19720
1800,9480,20232
1544,8456,19976
1544,8456,19976
1032,8456,20488
520,7688,20232
520,7432,20232
1032,7944,19976
1544,8968,19976
1288,8712,20232
1544,8968,20232
1544,8712,19976
776,7688,20744
-760,4103,23816
-3576,-761,27911
-6648,-8185,-32761
-9208,-15609,-27129
-10488,-18937,-22521
-11256,-18169,-21753
-7672,-6905,-26873
-760,10759,28936
7176,29704,17160
14088,-18936,5640
18440,-3320,-3576
22535,13064,-10487
25095,26632,-14583
24071,-32504,-14839
17415,31240,-9463
7687,17160,1289
-1016,-5113,15368
-7416,-32505,29192
-12536,8967,-24568
-15864,-7673,-15097
-17400,-18169,-7417
-17400,-21497,-5369
-19448,-31225,5639
-20727,32007,11527
-21751,31495,16135
-20727,32519,17927
-18679,-29689,14855
-16119,-23033,7943
-13559,-17145,-2297
-11000,-14073,-12025
-8952,-12537,-19705
-6136,-9465,-25593
-4600,-6905,-31225
-3064,-6393,28679
-760,-5881,25095
776,-4344,21511
2312,-2040,18183
2568,-1528,15111
2568,-2296,14599
2824,-2296,14855
3080,-1784,14599
2824,-1528,14087
2824,-2296,13319
3336,-3064,13063
3592,-2808,12551
3848,-2296,11783
3848,-2296,11783
4360,-2040,11527
4360,-2040,11015
4104,8,9736
4616,1288,8712
5128,1800,7944
5896,2824,7688
6920,5128,5640
7688,8200,4872
7944,9992,4872
8968,11528,3336
8968,14088,1288
9480,17416,8
9992,19464,-504
11015,20488,-1272
11271,23304,-2296
11527,25608,-3576
11527,27400,-3320
12295,28168,-3064
12295,29192,-3576
12039,30728,-4344
12039,31752,-4344
11527,31240,-3576
11271,30984,-2296
11271,30728,-2040
11271,30472,-2296
10247,29960,264
9480,28936,2056
8712,27144,2824
8200,26120,3848
7432,25608,5384
6664,24840,6920
6408,22792,8456
5640,21256,8456
5384,21000,9480
4872,20232,11272
4360,18952,12552
4104,17672,12808
4104,16904,13064
3592,17160,13832
3336,15880,14600
2824,14600,15112
2824,14344,15368
2824,14344,15624
2312,13320,15624
1800,12552,16136
2056,12296,16648
2056,12552,17160
2056,12296,16904
2056,11016,17160
2312,11016,17416
1544,10504,17928
1288,9736,17672
520,7944,17672
776,7688,17672
1032,7176,18440
776,7176,18696
1288,6408,19208
1288,5384,19208
1032,5640,18952
776,5896,19208
1032,5896,19464
1288,5896,19464
2056,6920,19208
2056,8456,19720
2056,9736,20488
2056,9992,21256
2312,10760,21000
2824,12296,21000
3592,14344,19720
4616,15880,17416
5640,17416,14600
5896,18952,13832
5896,19720,13832
5896,19720,13320
6152,19976,13064
6152,20744,14088
6408,20488,14600
6152,20232,14600
5896,20232,14600
6152,19720,14856
6408,17672,14856
6152,16392,16392
5640,15880,16904
5128,14088,17416
3336,11784,18184
1544,9224,18952
1288,8712,19464
1032,7944,19976
264,6920,20232
264,6664,20744
520,6920,21000
776,6920,21000
520,6920,20488
-248,7175,20488
8,7176,20488
264,6920,20232
520,6920,19976
520,6920,20488
8,5640,21256
-504,5383,21768
-5368,-3321,28935
-8440,-11001,-30457
-11000,-17913,-24569
-12024,-19705,-21241
-11768,-15865,-21753
-7160,-4089,-27641
1288,13576,27144
9480,32264,14600
15112,-16120,3848
19464,-760,-4088
24071,14600,-10487
25863,26888,-14327
22023,32520,-12535
14599,27144,-5623
5383,10248,6409
-3576,-13305,20488
-10488,25351,-31224
-15864,2055,-19960
-18168,-13049,-11257
-17912,-22009,-3065
-19960,-28921,3335
-21751,32007,9479
-22007,30215,16135
-22263,30215,19463
-22263,30215,20231
-19703,-29177,15623
-16887,-23033,7687
-13559,-17401,-3321
-10744,-14073,-13305
-9208,-12537,-21241
-7672,-10233,-26361
-5368,-8441,-31737
-2808,-6393,28935
-1528,-5369,24839
-248,-4601,21255
520,-3064,18183
1800,-2808,15879
1800,-3064,14855
1544,-3320,14855
1800,-3064,14343
1544,-3320,13575
2056,-3320,13063
2056,-3320,13063
2056,-3576,13063
2312,-3576,13063
2568,-3576,12039
3336,-2808,11271
4104,-1016,10503
4360,-504,10247
4616,-248,9991
5640,2312,8456
5640,4360,7176
6152,5896,6152
6920,7176,4872
8200,9736,3592
8968,12808,2568
9480,15112,1032
9736,16904,264
10248,18696,-504
11015,22024,-1784
11015,24328,-2296
11527,25864,-2808
12295,26888,-3320
12551,28936,-3832
12807,30216,-4344
12807,30472,-4600
12295,30472,-4088
11783,31496,-3320
12039,31752,-2040
11783,31496,-1528
11527,30216,-504
10759,29704,1032
9992,29704,2824
9480,28424,4104
9736,27400,4616
8456,25352,6664
7176,24072,8200
6408,23048,9480
6408,22024,9992
5896,20744,11528
5640,19976,12808
4872,18952,13320
4872,18440,14344
4872,17672,14856
3848,16136,15112
3336,15624,15624
3080,15624,16136
3080,14856,16136
2824,14600,17160
3080,14344,17160
3336,13576,16904
3080,13064,17160
2312,12552,17928
2056,11528,17928
1800,11272,17928
1800,10504,18184
1800,9480,18184
2056,9224,18696
1544,8968,18696
1288,8456,18440
1288,7688,18952
1544,7432,19208
1544,6664,19464
1288,6408,19208
1288,6152,19720
1032,5640,19976
2056,6152,19976
2312,6664,20232
2312,7176,20232
2312,8968,21000
2312,9480,21768
2568,9992,22536
2312,10760,22536
2568,12552,22536
3848,14600,21000
5128,16136,19208
5640,17672,16904
5640,18440,15368
5896,19208,15624
6152,19464,15368
6152,20232,15112
6408,20744,16392
6152,20488,16904
5896,19976,16904
6152,19720,16392
6408,17928,16392
5640,16648,17928
5128,15624,19208
4104,14344,18952
4104,12808,19208
3848,11016,19464
2312,9992,20744
1288,8968,22024
1032,7432,22024
520,6920,22280
520,6664,22792
264,6408,22792
264,6152,22536
8,5640,22536
520,5640,22536
776,6152,22792
776,6408,22792
264,6408,22792
-248,5895,22792
-504,4615,24072
-1528,1543,26888
-4600,-3577,30983
-8184,-10233,-28665
-9976,-17145,-22777
-10744,-19193,-20729
-11256,-17913,-19193
-7672,-6137,-24313
-248,11527,30472
8712,29960,17160
15624,-18168,5896
20488,-2552,-2552
24071,13064,-9207
26119,26120,-13303
24071,32520,-13559
16647,28424,-6135
6663,13064,5641
-2296,-10745,19720
-8952,27911,-32504
-13816,4871,-20728
-17400,-10489,-10745
-18680,-21241,-3321
-18936,-29177,3079
-20215,31495,9479
-22519,28935,15367
-22263,28679,19719
-20727,30215,19975
-19191,-31225,16647
-16887,-25081,10247
-13559,-19705,7
-12279,-19193,-3833
-8184,-15353,-18169
-7160,-12281,-23801
-5112,-9721,-29177
-2296,-8953,30983
-504,-8185,26631
8,-6392,23559
1544,-4600,20487
2568,-4600,17927
2568,-5368,16391
2568,-5624,16391
2312,-5368,16391
2312,-5368,15623
2568,-5112,15623
3592,-5112,15111
3592,-5368,14087
3336,-5880,14087
2824,-5624,13831
2824,-5624,13831
4360,-4856,13319
4872,-3320,11271
4872,-2040,11015
5640,-760,10247
6664,1032,8712
7688,3336,7688
7688,4360,7688
7944,8200,6664
8712,9736,4872
9992,12296,3336
10248,15112,1800
10504,17416,1544
11272,19208,520
12040,21256,-1016
12295,23816,-1272
12295,25096,-1272
12295,26120,-1784
12551,27400,-2296
13063,29192,-2808
13319,29704,-2296
12807,29960,-1272
12039,29448,-504
11271,28936,776
10760,28168,1288
10248,27400,2824
9992,26632,4360
9480,25608,5128
8968,25096,5896
8968,23816,7176
8456,22280,8456
7432,21000,9992
7176,20744,10248
6664,18696,12296
6664,17928,13064
5640,16648,13832
5128,16136,14088
5384,15624,15112
5384,15112,16136
4872,14344,16648
4360,13576,16904
4616,13064,17416
3848,12040,18440
3336,11272,18184
3080,11272,18184
3336,10760,18440
3336,10504,18696
3080,9480,19208
3080,8968,19720
3080,8456,19720
3080,7688,19976
3080,7176,19976
2568,6664,19976
2312,6408,20488
2312,5384,20488
2312,4360,20744
2568,3336,21256
2568,3336,21512
1800,2568,21512
1800,2568,21512
2056,2312,21512
2312,3848,21512
2568,4616,21768
2312,4872,21768
3592,6408,21512
3592,7176,22024
3336,8200,23048
3080,8968,23560
3592,9736,22280
4872,12552,21000
6408,14344,18696
6664,15880,16648
7176,16392,15880
7688,18184,15368
7432,18952,15112
7176,18696,15368
6920,18696,15880
6920,18696,16392
6920,18952,16392
7944,18696,16392
8200,16904,16136
7944,15368,16904
7432,15112,17416
6152,13320,18696
5128,11784,18696
5128,9736,19720
4360,8712,20488
2824,7944,21256
2056,6664,21256
2056,5384,21768
2312,5128,22024
2312,4872,22024
2312,4616,22280
1800,4616,22024
1800,4616,21512
2056,4872,21512
2056,5128,21512
2056,4872,21512
2056,4616,21768
1544,3848,22280
-504,-249,25351
-3832,-6137,30471
-6904,-13049,-29433
-8952,-19705,-25081
-9720,-21241,-22265
-8952,-17145,-22265
-4856,-3833,-28153
-1528,2311,-31992
11016,-31736,13320
16392,-14584,3080
20232,1544,-4855
24839,17928,-12535
27143,30728,-16375
23815,-31224,-14839
17159,27656,-7415
8199,9480,4361
8,-14584,18184
-7160,23815,31240
-12280,775,-22520
-14072,-12537,-13817
-15096,-21753,-7417
-16120,-28409,-1273
-17400,32263,4871
-18679,29447,9223
-18679,29447,11783
-18167,31239,12807
-17143,-30713,11271
-14583,-25081,6151
-11767,-20729,-3577
-9464,-17913,-12793
-7160,-15865,-18169
-6136,-14073,-23545
-5624,-13049,-26361
-2552,-11001,31239
-760,-9977,28167
264,-8184,24839
1800,-6648,20743
2824,-6392,17415
3080,-6392,16903
3336,-6136,16903
3336,-5624,16647
3080,-5368,15367
3592,-6136,14855
3848,-6904,15111
3336,-6648,15111
3336,-6392,14855
3592,-6136,13831
4104,-5880,13319
5128,-4600,12807
5384,-3576,12807
5384,-3064,11527
5640,-1528,10503
6408,776,9736
7432,2824,8968
8456,5128,7176
8712,7688,6152
8968,9480,5128
9736,10760,4872
10504,14344,3592
10760,15880,2056
10504,18696,1032
11016,21512,776
11784,22792,-760
12551,24072,-1784
12807,25864,-1784
12551,27400,-1784
12551,27400,-2040
12807,27912,-1528
12807,27912,-760
11783,28168,8
11272,28424,520
11528,27656,1800
11272,26632,3080
11016,26120,4872
10760,25608,5384
10248,24328,6408
9224,22280,7944
8456,20744,8712
8200,21000,9480
8456,19976,10760
7944,18440,12296
7688,17416,13320
6920,17672,13576
6152,16136,14856
6408,14856,15368
5896,14088,16392
5640,13832,16904
5640,13832,16904
5896,13832,17160
5384,12296,17416
4872,11784,17416
4872,12040,17160
5128,11784,17160
5128,10504,17928
4872,9736,17928
4360,9480,17672
3848,9736,18184
3336,7944,18440
2824,6664,18696
3080,6664,18952
3336,6408,19208
3336,6152,19464
3080,4872,19464
3080,4360,19208
3592,4360,19208
3848,4360,19464
3592,4360,19464
3592,4360,19208
3080,4360,19208
3080,4360,19208
3848,5896,19976
4104,6920,20232
4360,8200,20488
4616,8456,20488
4872,9992,20488
5896,11784,19464
6664,13576,17672
7176,15624,14856
7944,16648,14088
7944,18440,13832
8712,19464,13576
8968,19720,13832
8712,19464,14088
8712,19976,14856
8456,20232,15368
8200,19208,15112
8456,17672,15112
8200,17160,15368
7432,16904,16136
7176,15368,16904
6408,13576,17416
6152,11784,18184
5896,11784,18440
4104,9224,19976
3336,7176,20488
3080,6408,20488
3080,6664,20488
2312,6920,20488
2312,6920,20488
2568,6664,20488
2568,6152,20488
2824,6152,20488
2824,6664,20488
2568,7176,20488
2568,7176,19720
2568,6408,20232
2056,4104,22792
-504,-761,27143
-4088,-7417,31751
-6136,-14841,-28665
-7672,-18937,-23033
-8440,-17657,-22265
-6392,-8185,-26361
520,8968,29704
8968,28168,17928
15624,-19192,6664
19976,-2552,-2296
21511,2824,-5367
26631,27400,-15095
26631,-29432,-15607
20999,-31224,-10999
12039,20488,-2295
4359,-1784,11272
-2808,-28921,25864
-9464,11271,-27896
-13304,-6137,-18681
-14328,-17913,-11001
-14584,-25337,-4345
-16120,-29945,1543
-17655,-32505,5639
-17911,31751,9735
-16887,32519,12551
-16375,-29945,12039
-15607,-24313,6919
-12791,-19193,-2297
-10488,-16633,-11001
-8184,-13817,-17401
-6392,-11001,-24057
-4600,-8953,-29945
-1784,-7673,31239
264,-6648,27143
776,-4600,23559
1544,-3320,21255
3336,-2552,16647
4104,-2808,16135
4104,-2808,15879
3592,-2296,14855
3848,-2040,14599
4104,-2296,14599
4104,-3064,14087
4616,-3064,13319
4616,-2808,12807
4616,-2296,12807
5128,-1528,13063
5128,-1272,12551
5640,-248,10759
6152,776,9224
6664,2568,9480
7688,4104,8968
7688,5896,7432
8456,7944,5896
9224,10248,4872
9480,12552,4616
10248,14600,3080
10760,16648,1544
11016,19208,776
11528,21256,520
11784,21768,8
12040,25352,-2040
12295,27400,-2296
13063,28936,-2552
13319,30216,-2808
13063,31240,-3576
13063,32264,-3320
13063,32264,-2552
13063,32520,-1528
12807,32264,-1016
11015,32008,264
11272,31240,1800
11016,29448,3080
10760,28936,4360
9992,27912,4872
8712,26120,5896
8456,24584,7688
8456,23560,8968
8200,23304,9992
7432,22280,11016
6408,20488,12040
6408,19464,12552
6408,19208,13320
5128,18696,14088
4872,17416,14856
5128,17160,15112
4872,16648,14856
4872,16392,15368
5128,15368,16392
4616,14856,16392
4104,14856,16904
4104,14600,16904
3848,13064,17416
3848,12296,17416
3592,12296,17416
3080,11784,17672
2824,11272,17672
2824,10760,17928
3080,9992,17928
3592,10248,18184
3336,9224,18696
3336,7944,19208
3592,8200,19208
3080,8200,18952
3336,7944,19208
3592,7432,19208
3592,7688,19208
3848,8200,19208
3592,9480,19464
4872,9992,19464
5384,9992,19464
5128,11272,20232
4872,12552,20744
5128,13832,20744
5896,14600,20232
6664,16392,17672
6920,18952,15368
7176,20232,14344
7176,20488,13576
7944,21256,13576
8200,22792,13576
7688,23560,13320
7432,23816,14344
7944,23560,15112
8968,22792,15112
9224,22280,14856
7688,21000,14600
6664,19720,15112
6920,18696,16904
6920,17416,17160
5896,15624,16904
4360,14088,18184
4616,12552,19464
4360,11528,20232
3336,11016,20232
2568,10504,19976
2568,10248,20232
3336,9992,20488
3080,9992,20488
3336,9736,20488
3080,9736,20488
3080,10248,20232
3336,10504,19976
3336,10504,19976
3080,9992,19976
1800,7944,21768
8,4104,25608
-2808,-2041,30727
-5880,-9721,-29433
-8440,-16121,-24825
-8696,-16377,-22265
-7416,-10489,-23033
-2296,4103,-31736
5640,23304,22536
12808,-23800,9992
18184,-6904,264
22792,8712,-6903
26119,23304,-13303
27143,-31224,-15863
23303,-29176,-12279
20743,-29944,-10231
5895,8200,7689
-2296,-17657,21512
-7672,22023,-31224
-12024,1031,-20472
-14328,-12281,-12281
-15608,-20473,-5369
-16376,-26361,1543
-17399,-30201,7687
-18423,-31481,12807
-18167,-31481,15623
-17143,-28665,15879
-15095,-23289,12039
-12279,-17657,2567
-9975,-13817,-8185
-7672,-11513,-16377
-5624,-8953,-22777
-4344,-6905,-28409
-2552,-5369,31751
8,-3576,27655
1544,-1784,24327
2824,-248,20743
4104,264,17160
4360,264,14856
4360,520,14600
4616,520,14856
4872,264,14600
4872,520,13832
4616,520,13320
4872,520,13576
4872,264,12808
5896,264,12552
5896,520,12296
6152,1544,11784
6152,2056,11016
6408,2568,9736
6664,4104,8968
7432,5896,7944
8200,7944,7176
8968,9480,6152
9224,11272,4616
9992,13832,3848
10504,16392,2568
11016,17928,1288
11272,19976,-248
12039,23048,-504
12551,25352,-760
12807,27144,-2552
12807,28424,-3576
12807,30216,-3576
12807,31240,-3320
13319,-32760,-4088
13319,-32760,-4344
13319,-32248,-4344
13575,-31736,-3064
13063,-31992,-1528
12551,-32504,-1016
12039,32008,-504
11783,31240,1288
11528,30728,3080
10504,29192,4360
10248,28168,4872
10248,27144,6152
9480,26120,7944
8456,24840,9224
7944,24072,9992
7432,22792,10760
7176,22024,12296
6408,20744,13320
6152,19976,13576
5640,19208,13576
5384,18696,14600
5640,18184,15880
5640,17416,15624
5384,17160,15880
5128,16904,16648
5128,16392,17416
4872,15624,17160
5128,15368,17160
5128,15112,17416
4360,13832,17160
4104,13576,17416
4360,12808,17928
4360,12808,18440
3592,11784,18184
3336,11016,18184
3336,11016,18696
3336,9992,18440
3336,9480,18696
2824,8968,18952
2824,8456,19208
2824,8712,19464
2824,8712,19208
3080,10248,19464
4104,11272,19976
4104,11272,20488
4104,11784,21000
4104,13064,21000
4872,14600,21000
5384,15368,20744
5384,15880,19976
6152,18696,15880
6920,20488,14344
7176,20744,14344
7176,20744,14344
7432,22280,14344
8200,22792,14088
8200,22792,14856
8200,23048,15624
8456,22536,15624
8200,21256,15112
7688,20232,15368
7432,18952,16136
7432,17672,17416
6920,16648,17416
4872,14344,17416
3848,12552,18952
3592,12296,20488
3080,11016,20744
2312,9736,20232
1800,9736,19976
1544,9480,20488
2056,9224,20744
2312,8968,20488
2056,8968,20744
1544,9224,20744
1544,8968,20488
1544,8712,20232
1800,8968,20488
2056,8712,21000
8,6152,23560
-2808,7,27656
-5112,-6905,-32249
-7672,-13561,-25849
-9976,-18169,-21497
-10488,-17145,-20985
-6904,-7161,-24569
520,11272,31240
8456,29960,18184
15368,-19192,6408
20232,-2808,-2296
24583,13576,-8439
26375,26120,-13047
24583,-32760,-14071
18695,30984,-8183
9991,18184,2569
520,-4088,15624
-6904,-31481,29704
-12280,8967,-24056
-15096,-7417,-14585
-15352,-11001,-12025
-17400,-25593,519
-19191,-31225,6663
-20215,32519,12295
-20471,32519,17415
-19447,-31737,18439
-17399,-28409,15879
-14839,-22265,8967
-12279,-16121,-1273
-9976,-13049,-11769
-7416,-11513,-19961
-5368,-8697,-25849
-3320,-5881,-31225
-1272,-4601,29447
776,-4344,25351
2056,-2552,22023
2824,-248,18439
3336,8,15880
4104,-1016,14599
4360,-1016,14599
4104,-248,14599
4104,-248,13831
4872,-1016,13063
4872,-1784,13319
5128,-1784,13575
4616,-1272,13063
4360,-760,12039
5384,-248,11783
6664,264,11784
6664,1288,10760
6152,2568,8968
6152,3592,8712
6920,4616,7688
8712,7432,6664
8712,9736,5128
8456,11528,3848
9736,13064,3592
10760,15624,2056
11016,18952,264
11272,20488,-504
11527,21768,-1016
12039,24328,-1784
12039,26888,-2808
12807,28424,-3576
13319,29448,-3576
13063,31240,-3576
12807,32520,-3832
13063,-32760,-3832
13063,-32504,-2808
13063,-32504,-1528
12807,-32504,-1272
11527,31752,264
11528,31240,1544
11528,30472,3080
10760,29192,4104
9480,27656,5384
9224,26632,6920
8968,25608,8200
8712,24328,9736
7688,23304,10760
6920,22536,12296
6920,21768,12808
6408,20744,13832
6664,19976,14344
6152,18696,14856
5128,18184,15368
5384,17672,16392
5384,16904,16648
4872,16392,16648
4104,15880,17160
4104,15624,17416
4872,14856,17416
4616,14600,17672
4616,14344,18184
4872,13832,18696
4872,13320,18696
4104,12296,18440
3592,12040,18952
3080,11528,19208
3336,11272,19208
3336,10504,19208
3336,9736,19464
3336,9224,19720
3080,8712,20488
3080,8200,20488
3080,7688,20488
3336,7944,20488
3080,8456,20744
3592,10248,21256
4616,11528,21256
4872,11784,22280
4360,11784,23304
4360,13064,23304
5128,15368,23048
5896,16648,20488
6664,17928,18440
7688,19464,17160
7688,20744,16392
7176,20488,15368
6920,21000,15368
6920,21768,16136
7176,22792,16904
7176,23048,16648
7176,21512,16648
7176,20488,16648
7176,19464,17160
6920,19208,17160
6152,17672,17672
5896,15880,18440
5640,14856,18952
4104,13576,20488
3336,11784,21000
2824,10248,21256
2312,9224,21256
1800,9480,22024
1288,8712,22024
776,8200,21768
520,7944,21768
1032,8456,22024
1800,9224,22024
1800,9480,22280
1544,9224,22280
1800,9224,22280
1544,8712,22536
776,6920,23816
-248,5639,24584
-4856,-3321,32519
-7928,-10745,-27129
-9976,-16889,-22009
-10744,-18425,-19449
-9720,-12793,-20729
-4856,1031,-27640
3848,19720,26120
11272,-28408,13064
16392,-12536,3080
21256,3336,-4343
25095,18440,-10743
25863,29448,-14071
22023,-32760,-10743
13831,25352,-2295
4359,6920,10505
-4344,-17913,23816
-11000,20231,-28408
-14840,-1017,-17145
-16888,-13561,-8185
-17400,-22265,-1017
-18680,-29433,4871
-20471,31751,11527
-20983,30727,17159
-20983,31239,20231
-20983,31239,20743
-17911,-26873,14855
-15095,-19961,6151
-11511,-15353,-5113
-8952,-13049,-15097
-6648,-11257,-21497
-4600,-8185,-26361
-3064,-6137,-31993
-1272,-5113,28167
264,-4344,23815
2056,-2040,20999
2824,-760,17415
3592,-1016,14855
3848,-1528,14855
3848,-2040,14855
4104,-1528,14599
4104,-1272,14599
3848,-2040,14343
3848,-2040,13831
3848,-2296,13063
4360,-1784,12551
5128,-1016,12039
4872,-760,12039
5128,-248,11015
5128,776,9224
5896,1800,9480
6920,4104,8712
6920,5384,7176
8200,7432,5640
9224,10760,4872
9736,13064,4104
9736,14344,2824
10248,16648,776
11528,19464,8
12296,22024,-248
12039,23816,-1016
12551,26120,-2552
13831,27912,-3064
14343,29704,-3064
14599,30728,-3576
13575,30984,-3832
13063,32264,-3832
13319,-32504,-3064
