-5369,-18427,-19449
-4345,-17659,-18681
-4089,-16891,-17913
-3065,-15611,-17401
-2809,-14331,-16377
-1785,-14075,-15865
-1017,-13051,-15865
-761,-12283,-16121
-249,-9723,-15353
-249,-8955,-14329
775,-7930,-13049
1543,-6138,-11257
1543,-5626,-10745
2567,-4858,-9209
4103,-3322,-8441
5127,-762,-8953
5895,1542,-10232
7175,3334,-12792
8967,5638,-15352
10503,7686,-15864
12295,9222,-16376
14599,11014,-16632
16647,11526,-17656
18183,11782,-20216
18951,12038,-22008
20999,12294,-24312
23559,12806,-27128
27399,14598,-30712
31751,18438,28424
-29689,23302,18184
-25081,29958,6152
-22009,-28154,-7160
-21498,-25594,-11768
-22778,-17146,31240
-26618,-12794,21256
-32250,-7418,14088
27142,-250,8968
20486,7942,4617
12550,16646,1033
4870,25094,-1015
-2811,32261,-3831
-8955,-28411,-6135
-13051,-25851,-8439
-15867,-23291,-8951
-18171,-20475,-7671
-20219,-16379,-4343
-21755,-13819,1545
-21498,-13051,8969
-19706,-15611,16905
-15866,-24571,26377
-10746,27141,-26103
-7674,7173,-10231
-6650,-16891,7176
-6393,23045,25864
-5625,-763,-22265
-5625,-18683,-8185
-6905,-28155,-505
-7929,-29947,1031
-7928,30981,4359
-7416,29189,6919
-7416,27653,8711
-7928,26885,10503
-8696,26117,12551
-8696,24581,14087
-8184,23813,15879
-7928,23813,16903
-7928,22021,17159
-8696,18949,17415
-9976,15365,17159
-11512,12549,16135
-13048,9221,15623
-12792,6405,15879
-12792,4101,18439
-12792,3589,20999
-12024,2309,21511
-11256,-507,21766
-11512,-2811,21766
-11768,-4091,22278
-10744,-5371,22534
-8696,-5883,23558
-7928,-6907,24326
-7672,-6651,23814
-7416,-6651,23558
-6648,-8187,20486
-6136,-8955,19462
-5624,-7931,18694
-4600,-5883,18182
-2808,-3067,16390
-1272,-1019,15110
-248,1797,14087
264,5638,13319
1288,8966,10759
2056,11782,8967
2056,14598,8455
2568,18438,7175
3080,22278,5383
3592,25350,2823
3592,28166,2055
3592,32006,1031
3848,-29178,7
4360,-26106,-1785
4615,-23034,-2297
5383,-19706,-2297
5639,-17402,-3833
5383,-15354,-6137
4103,-15098,-8185
3591,-14842,-9465
3591,-14074,-9977
3335,-12538,-11257
3335,-11770,-11001
3591,-10234,-10489
3847,-8442,-10233
3847,-7674,-10745
4103,-7674,-12025
2567,-8954,-13561
1799,-9466,-15097
2055,-9722,-15097
2055,-10234,-15097
1543,-11002,-15609
775,-11770,-15865
775,-12282,-15865
775,-13050,-16121
263,-14330,-17401
-1017,-16379,-18425
-1529,-18171,-19449
-1529,-19451,-19449
-2297,-20731,-19705
-3321,-21499,-19705
-3065,-21755,-19193
-2553,-22011,-17913
-2041,-21243,-16889
-1273,-19963,-16121
-1529,-19451,-16121
-761,-18427,-15609
263,-16890,-14585
775,-15354,-14073
1031,-13562,-13305
1287,-11770,-11257
1543,-11770,-8953
2311,-10746,-8185
3335,-8698,-7673
3847,-7418,-7417
5895,-5114,-7929
7431,-2042,-10489
8967,518,-15096
9735,2054,-17912
10503,2822,-18936
11783,3846,-19960
12295,4358,-21240
11783,3846,-20984
9735,1030,-20472
7431,-1530,-19705
5383,-3578,-18425
3847,-5626,-18169
2823,-7930,-17657
2311,-10234,-16377
2055,-11258,-16121
2055,-11258,-16121
2311,-11514,-15865
2823,-11770,-15865
3335,-11002,-15609
3335,-10490,-15865
3335,-9722,-15865
4103,-9722,-15609
4103,-9210,-15609
4359,-8698,-15353
4615,-8186,-15353
4871,-8186,-15353
4871,-7930,-15097
4615,-7674,-14585
5127,-7418,-14585
5383,-7162,-15353
5895,-7418,-15353
6919,-6650,-18169
7943,-2554,-27641
11015,4614,21768
15367,15110,-1528
20742,29702,-30968
24326,-18682,520
23558,-762,31496
15365,17158,-1015
1540,30470,-25591
-3324,-31995,-31479
-20988,18949,-27383
-22780,-3323,-1784
-19196,-26107,-31736
-14331,22789,3848
-8442,15109,-31736
-4602,10501,-8184
-2554,4357,11016
-2297,-2043,26887
-505,-6907,-26873
775,-11002,-18425
1031,-14074,-11769
1287,-15354,-7161
1543,-15098,-4345
3335,-14330,-2553
4615,-14074,-761
4871,-13306,519
3848,-13050,1287
3592,-13050,2055
4360,-13050,2567
4872,-13562,3591
4360,-14074,3847
3592,-14842,3335
3592,-14842,3335
3848,-15098,3335
3848,-15354,3591
4104,-15866,4871
4104,-16378,5639
4104,-16122,5895
4360,-16122,6407
4360,-16122,7431
4872,-15354,8967
6152,-13818,9223
7176,-13050,8967
7176,-13050,8967
6408,-13306,9223
5640,-13306,9735
5640,-12794,9735
5896,-12026,9223
6408,-11770,8967
6664,-11514,7431
6152,-12026,6663
5896,-12282,6919
5896,-11258,6919
6152,-9722,5383
6664,-8954,4103
6920,-8698,3591
6664,-8186,2567
7176,-7162,519
7176,-6138,-761
7431,-6138,-1017
7687,-6138,-2809
7431,-5626,-4089
6919,-5114,-5881
6663,-4858,-7161
6407,-4858,-7417
6663,-4858,-9209
6407,-4090,-11001
6407,-4090,-11769
6151,-4346,-12793
5895,-5370,-13305
5127,-5626,-14585
5127,-5882,-15353
3847,-7418,-16121
3591,-8186,-16633
2823,-8698,-17657
2311,-9722,-18425
2055,-10746,-18425
1287,-11514,-19193
263,-12282,-20217
263,-12282,-20217
-249,-12027,-19961
-249,-13563,-19961
-761,-14587,-19705
-761,-14587,-18681
-761,-14331,-18425
-249,-13819,-17657
1287,-12538,-16889
2567,-10234,-16377
2567,-7930,-15609
2823,-7418,-14585
3847,-6906,-13561
5383,-4858,-12025
5383,-4346,-10489
5127,-4346,-8953
6151,-3578,-8185
7175,-1274,-8697
8967,1286,-10488
9991,3078,-14072
10759,3846,-17400
12807,5894,-20216
14599,8454,-22264
14599,8454,-23544
14343,7942,-23288
13063,6406,-23288
11527,4102,-23288
9479,1798,-22520
6919,-1530,-21753
5383,-3834,-21241
4615,-6138,-20217
4615,-7162,-19961
3591,-9978,-19449
3335,-10490,-19193
3591,-11002,-19705
3335,-10746,-19961
3335,-11770,-19961
3335,-12538,-19449
3335,-12282,-19193
4103,-12026,-19705
4359,-12282,-19961
4359,-12026,-19961
4359,-11770,-20217
4359,-11770,-19705
4103,-12282,-19449
4615,-12538,-19449
4871,-12538,-18937
4871,-12538,-18425
4871,-12538,-19193
6151,-12538,-22777
8455,-8954,31495
12039,-762,13063
15879,12294,-12280
21510,27142,21256
26630,-22778,-15352
25093,-3834,14088
22789,3334,3849
261,26630,27401
-12540,23813,21769
-19452,6661,-29175
-21244,-15867,1288
-18683,29445,-27128
-13051,15621,8200
-7418,7685,-29688
-3322,3333,-8440
-2554,-2299,10503
-1785,-9723,25351
-249,-15867,-29177
263,-19450,-21497
7,-21242,-14329
7,-22778,-9721
1799,-23802,-7929
3335,-24058,-6905
3079,-22778,-5369
2823,-21242,-3321
3335,-21242,-3577
3591,-21754,-3321
3591,-22010,-3065
3335,-22010,-1017
3079,-23546,7
3080,-24314,263
3080,-24314,775
3592,-23546,2311
3592,-23546,2055
3848,-23034,2567
3592,-23034,3335
4104,-22778,4359
4360,-23290,5127
4360,-25082,5895
4104,-24826,6663
4104,-24314,7687
4104,-24058,8711
4360,-23802,8711
4616,-23546,8967
4360,-23290,9479
4872,-22522,9735
4872,-22522,9991
5128,-22266,9991
4872,-22522,10247
4360,-22522,9479
4104,-20986,7431
4104,-19450,5383
4360,-18938,4359
5128,-18426,3591
5128,-17658,1543
5384,-16634,-505
4871,-16890,-761
4359,-17146,-3577
4103,-16122,-6137
4103,-14586,-8441
4359,-14330,-10233
3847,-14330,-10489
3335,-14074,-12537
3079,-13818,-14585
3335,-14074,-15097
3591,-13818,-15097
3847,-13050,-15609
3591,-13050,-17145
2823,-13050,-17401
2567,-13818,-17401
2823,-14074,-17401
2567,-13818,-18937
2055,-14074,-19961
2311,-14330,-19449
2055,-14586,-18681
2055,-14586,-18425
1799,-14842,-18681
1543,-15098,-18681
1287,-14842,-18937
1543,-14586,-18937
2311,-14586,-18425
2311,-14842,-18169
2055,-14586,-19193
2055,-14842,-19193
2055,-15354,-19193
2311,-15098,-18937
1799,-14330,-17913
1799,-14330,-17401
2311,-13306,-16633
2567,-11514,-15353
2823,-11002,-14073
3079,-10746,-12025
3847,-9722,-11001
4871,-8442,-9977
5639,-7162,-9977
6407,-5626,-9977
7431,-3322,-13561
8967,-762,-17657
9735,518,-19192
10247,1286,-19960
11271,2310,-21240
11783,2310,-22264
11527,2054,-22520
9479,-250,-21753
6407,-3322,-20217
4359,-5882,-19961
4615,-6394,-19961
2311,-10490,-18169
775,-12794,-17401
775,-14330,-17401
775,-14330,-17657
1031,-14586,-17657
1031,-14586,-17657
1543,-14586,-17401
1287,-14330,-17913
1543,-14586,-18169
1799,-14842,-18425
1543,-14586,-18425
1543,-14074,-17401
1799,-13818,-16889
1799,-14074,-17145
1543,-14074,-17145
1543,-13306,-16889
2311,-12794,-16633
2567,-13306,-16889
2567,-13818,-16633
3591,-13050,-19961
5383,-9210,-29177
8199,-762,19207
12295,10758,-4856
18182,25606,29704
20486,30982,19976
21766,-3578,24584
13829,14854,-8183
1028,25862,-31223
-12284,25093,26889
-20988,10757,-28151
-22524,-12539,-504
-19708,30469,-29432
-15355,16133,6152
-10234,9477,-30200
-5882,5381,-8952
-4090,-763,9735
-3577,-6651,25863
-2297,-11259,-28153
-1273,-15355,-19961
-1273,-18427,-13305
-505,-20219,-8185
519,-20218,-6137
1799,-19194,-4601
2567,-18170,-3065
2567,-17914,-761
2567,-17658,263
2824,-17658,775
2824,-17658,1287
2568,-17914,3079
3080,-18426,3591
3592,-18170,3847
3592,-18170,3591
3336,-18426,4103
3592,-18938,5383
3592,-19450,5895
3592,-19450,6151
3592,-19194,7431
3592,-19194,8967
3848,-19194,9479
3848,-19194,9991
3848,-18682,10503
4872,-18170,12039
5128,-18426,13063
5128,-17914,13063
4872,-17658,12807
4872,-16890,13831
4872,-17146,13831
4616,-17146,12551
4872,-16634,11783
4872,-15866,11271
4872,-15354,10503
4616,-15354,9735
5640,-14586,8455
5896,-13562,6663
5640,-13562,6663
5384,-12794,3591
5384,-12794,1287
4872,-11514,-761
4103,-11002,-2553
4359,-10746,-3833
4103,-10234,-6137
4103,-9722,-7929
3847,-9210,-8953
3847,-9466,-9465
3335,-9466,-10745
3079,-9210,-12281
3079,-8954,-13049
3079,-9210,-13305
3079,-8954,-14329
3079,-8954,-15097
2823,-9978,-15609
2823,-10234,-15609
2567,-9978,-15865
2567,-9978,-15865
2311,-9978,-16121
1799,-10234,-16121
1799,-10234,-16121
1543,-9978,-16377
1799,-9978,-16377
1799,-10234,-16121
1543,-10234,-16121
1543,-9978,-16121
1799,-10490,-15865
1799,-10746,-16121
1543,-10490,-16121
1543,-10490,-15609
1543,-10490,-15353
1799,-9722,-15353
2311,-8186,-14841
3079,-7418,-12281
3335,-7418,-10233
3335,-6650,-9465
4103,-5626,-9209
5639,-4602,-8441
7175,-2554,-8185
7943,-762,-9465
8711,1286,-12792
11271,3334,-14584
13319,4870,-15608
15367,6150,-16120
17159,7686,-17400
19719,8966,-19704
21767,8710,-21496
22791,8710,-22520
22791,9478,-23288
26887,11014,-28408
30983,12550,-32760
-30713,16134,25352
-26617,21766,14600
-22009,29190,776
-18681,-30202,-13560
-18170,-25082,-26360
-20730,-20474,27400
-25338,-15354,16904
-30970,-10234,10248
28422,-3322,6920
20742,5894,3593
12806,15622,265
4614,23046,-2039
-3323,29189,-3575
-9723,-32763,-5367
-14331,-30203,-7671
-17659,-27643,-7671
-20219,-24571,-4855
-22779,-20987,1289
-23802,-18171,7433
-23034,-18171,13321
-19450,-23291,21769
-14074,31749,-32247
-12282,27653,-28407
-7674,-5883,-4600
-6394,-30715,14344
-5113,9221,-31992
-5369,-12539,-16377
-6905,-27387,-6649
-8185,30213,-761
-8185,26885,2823
-7928,24581,4359
-8184,22789,4615
-8952,20741,5639
-9208,18949,7687
-9720,17157,9735
-11000,15621,9991
-11512,13829,10503
-11768,12549,12551
-11768,10757,14599
-12024,8965,14599
-11512,7941,14855
-11512,5893,16135
-11768,4357,18183
-11000,2821,18951
-10744,1541,19207
-10488,261,20743
-9720,-1019,22534
-9464,-1787,22790
-8440,-3323,22534
-7672,-3323,23046
-6648,-4347,24070
-5368,-5115,24326
-4088,-5115,23814
-2808,-5115,23046
-1272,-4091,23046
-760,-3067,22278
776,-1530,20998
1800,6,18951
2824,2310,17671
4104,4870,16135
5128,7174,14599
5640,9478,12551
5640,11526,10759
5384,14086,8967
5640,16902,6663
5384,19718,4615
5640,21510,2823
6152,24326,2311
5640,27398,263
4872,30214,-2041
4103,32006,-3577
4103,-30714,-4345
4103,-29434,-4857
3591,-26874,-7929
3079,-25594,-9209
3335,-24314,-9977
3591,-22266,-10489
3335,-20474,-11769
3335,-19450,-12793
3591,-18682,-13305
2567,-18170,-13817
1287,-17914,-14841
1287,-17146,-15865
1799,-16122,-16121
2567,-15098,-16121
2823,-15098,-15609
2823,-15098,-15865
2311,-15098,-16121
1799,-15098,-16121
1799,-15354,-16377
1799,-15354,-16377
2823,-15098,-16633
2823,-15098,-16633
2567,-15098,-16633
2823,-14842,-15865
3847,-14842,-16377
4359,-14330,-16633
4103,-14330,-16633
3591,-14586,-16889
3847,-14074,-16889
3847,-14074,-16633
4103,-13818,-16889
4359,-14074,-16889
4103,-14074,-16889
4103,-14074,-16633
4359,-13818,-16889
4615,-13562,-17145
4359,-12794,-16121
4359,-11514,-14841
4359,-10746,-14329
4871,-10234,-12537
5383,-8442,-11001
5895,-7674,-10745
6919,-6650,-10745
8455,-4090,-11513
9479,-1786,-14585
10759,262,-17144
11271,1286,-19448
12551,1542,-21240
13063,1542,-22008
12807,1798,-22520
12039,262,-23288
11527,-1018,-23289
7943,-3578,-22521
5895,-4858,-21753
5127,-7930,-20217
4359,-11770,-19193
3335,-14330,-18937
2823,-14842,-18937
2823,-15354,-18937
2823,-15354,-18681
2567,-15610,-18169
2823,-15866,-19193
2823,-15098,-19961
2311,-15098,-20473
2055,-14842,-19961
2823,-14330,-19705
3591,-14586,-19449
3079,-14330,-19449
2567,-14074,-19449
2055,-14330,-19193
2567,-15610,-18425
3335,-15354,-18681
3847,-14074,-18937
3591,-13818,-20217
3847,-13562,-23545
6407,-10746,32519
7687,-8186,28935
15111,9734,-9976
20486,24070,23304
24582,-25082,-12024
23301,-6650,18184
14853,12038,-14583
1284,23302,27657
-12028,22789,20233
-19196,7685,-31735
-20732,-14587,-4856
-18684,29701,31240
-14075,15109,1800
-7674,7941,31496
-3834,3077,-11512
-3066,-3579,6919
-2809,-10747,22791
-1273,-15611,-29945
7,-18938,-22009
7,-21754,-16121
7,-23802,-11513
775,-24058,-8441
2055,-23802,-6905
2567,-22778,-6137
2311,-22010,-4601
2311,-21242,-3321
2311,-20986,-3321
3079,-22010,-2041
3847,-21754,-505
4103,-21754,263
3848,-22010,519
3848,-21242,519
4104,-20730,1031
4104,-20986,1543
4872,-21498,1799
4872,-21498,2055
4360,-21242,2567
4616,-20986,3335
4872,-20986,4615
5640,-20986,5639
6408,-20218,5895
6152,-19194,6663
6152,-18938,6919
6408,-18938,7175
6408,-17914,7431
6408,-16890,7431
6408,-16634,6663
6408,-16378,6663
6408,-16122,5895
6408,-15610,5383
6408,-14586,3591
6664,-14074,3079
6664,-13818,1799
6664,-13306,1031
6664,-11770,-249
6407,-11258,-2041
6663,-11002,-3065
6407,-10746,-4601
6151,-10490,-6649
6151,-10746,-8185
6407,-10490,-9209
5383,-9978,-10745
4615,-9978,-11769
4615,-9978,-13049
4615,-9978,-13561
4871,-9722,-14329
4103,-9466,-15609
3079,-10234,-16633
3335,-10746,-16377
3335,-10490,-17145
3079,-10234,-17657
2823,-10490,-17913
2823,-11002,-18425
2823,-11258,-18425
2311,-11002,-18425
1799,-10746,-18425
2055,-11002,-18681
2311,-11002,-18425
2055,-11002,-18425
2055,-11258,-18681
2055,-11258,-18937
1799,-11002,-18425
1543,-10746,-17657
2055,-10746,-17657
2311,-11002,-17913
2567,-11002,-18425
2823,-9722,-18169
2823,-9210,-16889
2823,-8442,-15609
3847,-7162,-15097
4359,-5882,-13561
4359,-5882,-11769
4103,-5626,-9977
4359,-4346,-9721
5639,-2298,-10489
7943,6,-12024
8967,2054,-14840
9479,3846,-17912
10759,5126,-20728
12295,6406,-22264
13063,6918,-22776
13319,6918,-22520
11527,5126,-22776
9479,3590,-22520
8199,518,-20728
6407,-2810,-19449
4359,-4858,-19449
3335,-6394,-19449
2823,-8698,-18937
2567,-10490,-17913
2311,-10490,-18169
2311,-10490,-18169
2567,-10490,-18425
2311,-10490,-18425
2055,-9978,-18169
3079,-9466,-18169
3335,-9466,-18169
3079,-9466,-18425
3335,-9722,-18169
3335,-9466,-17657
3335,-9466,-17401
3335,-9466,-17401
3591,-9466,-17145
4103,-9210,-16889
3847,-9210,-16377
4359,-9210,-18425
4871,-9466,-19449
7687,-2298,28679
11015,7430,8456
16391,21766,-19192
21510,-27898,12808
23558,-10490,-23032
18693,8966,7945
7429,25606,-20983
-6652,30725,29449
-18172,22277,29961
-22012,1541,-12791
-21500,-21755,21512
-17147,24581,-6904
-11771,14085,25608
-6650,9733,-14840
-4090,4869,4616
-2809,-1531,21255
-2041,-7675,-31225
-1785,-12539,-21753
-1529,-15355,-14329
-1273,-17403,-8441
7,-18170,-5369
1543,-18170,-4089
2311,-17146,-1785
2567,-16378,263
2824,-16378,519
2824,-16122,775
2824,-16378,2055
2568,-16890,3847
2568,-16890,4615
2824,-17146,4871
3080,-17146,5127
3336,-17402,5895
3592,-17658,7431
3592,-17402,7943
3592,-17402,7687
3592,-17914,8711
3592,-18170,10247
4616,-17914,11527
5128,-17914,11527
5384,-17658,12039
5128,-16890,13575
5128,-16634,14087
5384,-16890,14343
5128,-16890,14599
5640,-16378,15111
5896,-15610,14855
5640,-15354,14599
5384,-15354,14087
5896,-14586,12807
5896,-14074,12551
5896,-13818,12039
5384,-13818,10503
4872,-12794,8967
4616,-12026,8199
4360,-11514,6151
4616,-11002,4359
4360,-10234,1799
4104,-9210,775
4360,-8442,-505
4359,-8442,-2553
3591,-8442,-4345
3591,-7930,-5625
3847,-7162,-6649
3591,-7162,-8697
2823,-7418,-10489
2567,-7418,-11257
2823,-7162,-11257
2823,-7162,-11513
2311,-7674,-12793
1799,-7930,-13305
2055,-7930,-13561
2055,-7674,-13561
1799,-7674,-13817
1799,-7930,-14329
2055,-7930,-14585
1287,-7674,-14329
1031,-7930,-14585
1031,-7930,-14585
1031,-7930,-14073
1287,-7674,-13305
1543,-7674,-13305
1543,-7930,-13561
1799,-7930,-13305
1799,-7930,-13305
1799,-7674,-13049
1799,-7162,-12281
2055,-6650,-11769
2055,-6138,-11513
3079,-5114,-10489
3079,-4090,-8697
3079,-3322,-7673
3847,-3322,-6393
4871,-2554,-5369
6151,-762,-5369
6919,1286,-6392
7943,2822,-9208
9479,4358,-13304
11015,5382,-15608
11527,6918,-17656
11783,7174,-18168
13063,7430,-19960
12807,6918,-19960
11015,5126,-19704
8455,1798,-18424
5895,-1018,-17657
4103,-3322,-16633
3335,-5370,-16377
2567,-7418,-15609
2055,-9722,-15609
1799,-10490,-15353
1799,-10746,-14841
2055,-10490,-14585
2055,-10234,-14329
2567,-10490,-14841
2823,-10490,-14841
3079,-10490,-15609
2567,-10490,-15865
2567,-10746,-15609
2823,-10746,-15353
3079,-10490,-14585
3079,-10746,-14585
2823,-11002,-14585
3079,-9978,-14585
3591,-9978,-14841
3335,-10490,-14841
3591,-10490,-17657
5127,-7162,-26873
7943,1286,20232
12807,13062,-3832
17926,26886,32264
20998,-22522,-2552
19973,-3322,26888
9989,15622,-4599
-4348,27653,-27383
-17916,26629,31753
-25596,12293,-24055
-26108,-10491,4104
-22267,-32507,-23544
-16379,17669,12040
-9978,11269,-25592
-5114,6917,-3832
-4090,773,14600
-3833,-5627,30215
-2553,-10747,-24569
-1017,-14587,-17401
-1017,-17147,-11001
-1017,-19195,-5369
-761,-19195,-3065
775,-18682,-2553
1543,-18682,-1273
1543,-17658,2055
1544,-16890,3335
2312,-16890,3079
3592,-16890,3079
3592,-17146,4871
3336,-17914,5895
3592,-18426,5639
3592,-18682,5639
3336,-18682,6151
3080,-19194,7431
3080,-19194,7943
4104,-19194,8455
4360,-19194,9223
4104,-19194,11015
3848,-19194,12039
4360,-19194,12807
5128,-18682,12807
5128,-18426,13319
5384,-17658,14087
5640,-17402,14087
6152,-17146,13831
6408,-17146,14599
6408,-16378,14599
6152,-15610,13319
6152,-15610,13063
5896,-15610,12039
5896,-14842,11271
6152,-13050,10247
6408,-12282,9479
6664,-12282,7943
6920,-12282,6151
6664,-11258,4359
6408,-9722,2055
5896,-9722,263
5128,-9978,-1785
5127,-9722,-3321
5127,-8698,-4601
4359,-8186,-6137
4359,-7930,-7673
4359,-8186,-8441
4359,-8442,-9465
4103,-8442,-10233
3591,-8186,-11001
3335,-8442,-12281
3335,-8442,-13049
2567,-8186,-14073
2311,-8442,-14073
2055,-9210,-13817
2055,-9466,-14329
2055,-9466,-14329
2055,-8954,-14585
2055,-8442,-14585
2823,-8698,-14329
2823,-9210,-14841
1799,-9722,-15097
2055,-9722,-15353
2055,-9722,-15353
2311,-9466,-15353
2311,-9466,-15353
2311,-9722,-15865
1799,-9466,-15865
1799,-8954,-16121
2311,-9210,-14841
2311,-8954,-13817
2567,-7930,-12537
3335,-6906,-11257
3591,-5882,-9977
3847,-6138,-8185
4615,-4346,-7673
6151,-2810,-7929
7687,-1018,-8185
8455,262,-9976
9223,1542,-14328
10503,3846,-18168
11271,4870,-18424
11527,5126,-20728
11783,5126,-21752
12039,5126,-22520
11527,3334,-22264
9223,518,-20728
5895,-3322,-19961
4103,-5882,-18937
4103,-6906,-18681
3847,-8442,-18169
2823,-11770,-17401
2055,-13050,-17401
2567,-13306,-18169
2567,-13306,-18169
2823,-13562,-17401
2823,-13818,-17145
2823,-14074,-17145
2823,-14074,-17657
2567,-13818,-17913
2567,-13562,-18169
2823,-13818,-17913
2823,-13562,-17401
2823,-13306,-17145
3079,-13306,-16633
3079,-13818,-16889
2823,-14330,-17401
3335,-14330,-17145
4103,-13306,-19449
6407,-10234,-28153
8967,-4346,21511
13575,6662,-3576
19718,22022,30472
24838,-26874,-4344
24325,-8698,24328
17157,9734,-9719
4100,23046,31241
-9212,25349,22025
-17916,12293,32265
-20732,-9979,-6904
-19196,-31739,29704
-14331,17925,8
-9210,9221,30472
-5370,4357,-12280
-3066,-1531,7687
-3065,-8699,23559
-2297,-14587,-28921
-1273,-18939,-20985
-1529,-22011,-14841
-1529,-23035,-9209
-1273,-22779,-6137
-761,-23291,-5625
519,-23546,-3833
519,-23034,-2041
519,-22266,-249
1287,-22010,-505
1799,-22522,-249
1543,-22778,1799
1800,-23034,2567
2056,-23034,2823
1800,-22522,2823
1800,-22266,2823
1800,-22522,3591
2056,-22522,5383
2824,-23034,6407
3080,-23290,6663
3080,-23546,7943
3336,-23546,9735
3336,-22778,10503
3592,-22522,10759
3592,-22778,11015
3848,-22778,12807
3848,-22522,13575
3336,-22010,13319
3592,-21498,13319
4360,-20474,13319
4616,-20218,13575
4616,-19962,13319
4616,-19706,12295
3848,-19450,11271
3336,-18938,9991
3592,-17658,8455
3336,-17146,7431
3592,-16890,5383
3592,-16378,3591
3336,-15866,1799
3336,-15610,7
3336,-15354,-1785
3591,-14586,-3833
3591,-14074,-6137
3079,-13306,-7673
2567,-13306,-9209
2567,-12794,-10489
2567,-12538,-11513
2823,-12282,-12025
2311,-12282,-13049
1543,-12026,-13561
1287,-12282,-13817
1287,-12282,-14585
1543,-12538,-14585
1287,-12026,-14841
775,-11770,-14841
1031,-11770,-15097
1031,-12026,-15353
1031,-12026,-15353
775,-11514,-15609
1031,-11770,-15609
1287,-12026,-15609
1031,-11770,-15353
263,-12026,-14841
7,-11770,-14841
775,-11514,-15097
1031,-11514,-15097
775,-11514,-14073
263,-11514,-13305
519,-11002,-13305
519,-10234,-13305
1543,-8954,-11257
1543,-7930,-9977
1543,-7674,-8697
2055,-6650,-7673
2823,-5882,-6137
3591,-4346,-6393
4871,-2810,-6905
6151,-762,-9465
7175,1286,-12536
7431,2054,-13304
9479,4614,-16632
9735,5126,-17912
10503,5894,-18936
10503,5126,-18680
8711,3334,-18424
6151,518,-17400
4103,-2298,-16633
3079,-4346,-16121
1799,-6650,-15609
519,-8954,-15097
263,-10746,-15097
519,-11002,-15353
775,-11258,-15353
1031,-11258,-15097
1031,-11002,-15097
775,-10490,-15353
1543,-10234,-15865
1799,-10490,-15609
1287,-10490,-15097
1031,-9978,-14841
1031,-9466,-14585
1287,-9466,-14585
1799,-9722,-14841
2055,-9722,-14585
1543,-8954,-14585
1543,-8954,-14585
1543,-9722,-14585
2311,-9466,-17401
4359,-5882,-26617
7175,2054,21768
11015,13318,-2808
16390,28422,-32504
20486,-20218,-1016
19973,-1786,27656
11013,16902,-4343
-2556,28421,-27639
-15100,27653,30729
-22524,12293,-23799
-24316,-11259,3592
-21755,-32763,-24568
-17147,17669,11016
-11258,11013,-26360
-6906,6405,-5368
-5882,1029,13320
-4857,-5115,29703
-3065,-10747,-25337
-2553,-14843,-18169
-2297,-17659,-10233
-2297,-18683,-5113
-1529,-18939,-4601
7,-19194,-1529
263,-18426,263
8,-17402,2311
264,-17146,3335
520,-17402,3079
1032,-17658,3591
1032,-18170,4871
776,-17914,5383
776,-17914,5639
776,-18426,5639
1288,-18426,6663
1544,-18426,8455
1288,-18426,8967
1544,-18426,8711
2056,-18426,9735
2568,-18170,11783
2312,-18682,13063
2824,-18682,13063
3592,-18426,13063
3592,-18170,14343
3848,-17914,15367
3848,-18170,15111
4360,-16890,15111
4360,-16378,15111
4104,-16378,15367
4360,-16378,14599
4360,-16122,13831
3592,-14842,12807
3592,-13818,12295
4104,-14074,11271
4104,-13562,9735
4360,-11770,8199
4360,-11002,7431
4360,-11258,5383
4616,-11258,3079
3592,-10234,1031
3592,-8698,-761
3591,-8442,-2297
3591,-8698,-4345
3591,-7674,-6393
3079,-6906,-7417
2567,-6906,-7673
2311,-7418,-9465
2567,-7930,-10489
2567,-7418,-10745
1799,-7162,-11257
1543,-7162,-12025
1543,-6906,-13305
1543,-7162,-13561
1287,-7162,-13561
775,-7418,-13305
1031,-7930,-13305
1287,-7674,-13561
1031,-7674,-13305
775,-7930,-14329
519,-7930,-14073
775,-7674,-14073
1287,-7674,-13561
1287,-8186,-13817
775,-8186,-13561
7,-8186,-13305
7,-8186,-13305
263,-7930,-13561
1031,-7418,-12793
1031,-7162,-12025
1287,-6138,-11001
1543,-5370,-9721
2055,-4346,-8953
2823,-3834,-7673
3591,-2810,-5881
4871,-1530,-5881
6407,774,-6392
7431,2566,-8440
7687,3590,-11768
7943,4358,-13048
9991,7174,-17400
11271,7942,-18936
12039,8454,-19704
11783,8454,-19960
11271,6662,-19960
9479,3846,-18936
6151,1030,-17912
3847,-1530,-16377
3079,-3834,-15865
2567,-6906,-15353
1543,-8954,-15353
1031,-9722,-15097
1287,-9978,-14585
1799,-9722,-14329
1799,-9466,-14841
1799,-9722,-15097
1287,-9722,-15097
1031,-9466,-14841
1799,-9466,-14841
2055,-9978,-14585
2055,-9978,-14585
2055,-9722,-14841
2311,-9722,-15097
2311,-9978,-14841
2311,-9722,-14329
2311,-10234,-14073
2055,-10234,-14073
2823,-10234,-16377
4359,-7674,-24313
7431,-1274,25863
11527,9990,2824
16647,23558,-26360
20486,-25850,4872
20998,-7930,-31224
13061,11526,1801
5,26630,-24055
-14332,28933,29705
-24316,17157,-28919
-26876,-4091,-3576
-23804,-27387,32264
-19451,19973,2824
-13050,12037,-31992
-7418,7941,-8184
-5370,2565,9992
-4601,-4603,26119
-3577,-10235,-28153
-2553,-13563,-19705
-2041,-16891,-13305
-2297,-18683,-7929
-2041,-19451,-7161
7,-19450,-3065
519,-18682,-505
7,-18426,1031
264,-18682,2055
520,-18938,2311
520,-19450,3335
264,-19194,4615
1032,-19194,4871
1288,-19194,4871
1288,-19450,5639
1544,-19450,6663
1032,-20474,7687
1032,-20730,8455
1544,-20474,8967
1800,-19706,9223
1800,-18938,9735
2056,-18682,10247
2312,-19194,11271
3336,-19450,12551
3848,-18938,13831
4104,-18426,13831
4616,-17914,14087
4872,-17658,14343
4872,-17658,14343
4616,-17658,14087
3848,-17402,13319
3848,-16890,12295
4104,-16634,11783
3848,-15354,11015
4104,-14074,9991
3848,-13562,8967
4360,-12794,7687
4360,-12538,6151
4360,-12282,3847
4616,-11514,2055
3592,-11514,519
3080,-11002,-1017
3079,-9978,-2553
2823,-9722,-5113
2567,-9466,-7161
2311,-9210,-8953
2055,-8954,-10233
2055,-8698,-11257
2311,-8442,-11769
2311,-8442,-13049
2055,-8186,-13817
1543,-7930,-14585
1031,-7930,-15097
775,-8698,-15609
519,-9210,-15865
519,-9978,-16121
775,-10234,-16121
519,-9978,-16121
-249,-9979,-15609
-249,-10235,-14585
-761,-10747,-14329
-505,-10747,-14329
-761,-10747,-14585
-761,-10491,-14329
-505,-10235,-14073
-505,-11003,-14329
-1017,-11515,-14585
-761,-11515,-14329
-249,-10491,-13817
7,-9722,-12793
775,-8442,-11769
775,-8442,-11513
1287,-7162,-9721
1799,-5626,-8441
2311,-5626,-7417
2823,-5114,-7161
3847,-3834,-7417
5127,-1786,-7929
6151,6,-11256
6407,6,-13304
8967,2822,-18168
9735,4102,-19192
11015,4614,-19704
11015,4614,-20728
10503,3078,-20472
8967,1542,-19960
5639,-1274,-18425
3335,-4858,-18425
2055,-7162,-18425
1287,-9978,-17913
519,-11770,-17657
7,-13050,-17145
263,-13050,-16889
1543,-12794,-16633
1287,-13050,-16121
1287,-12794,-15865
1031,-13306,-17145
1287,-13050,-17913
1287,-13050,-17657
1543,-13050,-17145
1799,-13306,-16889
1799,-13562,-17145
1799,-13562,-17145
1799,-13562,-16889
1799,-13306,-16889
1799,-13050,-17145
1799,-13562,-17145
2567,-13562,-18169
3079,-12538,-22521
5639,-7674,29959
10503,2822,8200
16391,15878,-20216
21510,31238,11784
23814,-16378,-25336
20485,3078,3849
10245,19462,-26359
-4092,26373,24073
-16636,19717,25097
-22012,517,-21495
-20476,-22523,12296
-17659,22021,-15096
-13307,11269,18440
-7930,6917,-21752
-4346,1541,-1528
-3834,-5627,16903
-3321,-11771,31495
-3065,-16635,-25337
-2553,-20475,-17657
-2553,-23035,-11257
-2809,-23803,-9209
-1529,-24059,-5881
-249,-22779,-4345
263,-21754,-1785
263,-21498,7
520,-21498,263
776,-22010,7
776,-22522,1543
776,-22266,3079
776,-22266,3079
776,-22522,2823
1544,-22522,3591
2312,-22266,5127
2056,-22266,6663
2056,-22266,6663
2568,-22266,6407
3080,-22010,8455
2824,-22266,9479
2824,-22266,9735
3336,-22266,9735
3336,-22522,11527
3336,-21242,12551
3848,-21242,13063
4360,-20986,13063
4360,-20730,13575
4104,-20986,13575
4360,-20986,13831
4104,-19450,12807
4104,-18682,11527
3336,-18682,10503
3592,-18682,10503
3336,-17658,9735
3080,-16378,8455
3080,-16378,6407
3080,-16378,4615
3080,-15098,3079
3336,-13818,1287
3336,-13306,-1017
2567,-13306,-3577
2311,-12538,-4601
2567,-11258,-6137
2567,-10746,-8185
2055,-10746,-9721
1287,-10490,-10233
1031,-10234,-10745
1287,-10490,-12025
1031,-10490,-12793
775,-10234,-13305
775,-10234,-13561
519,-10490,-13817
519,-10490,-14329
263,-10234,-14585
7,-10234,-14329
263,-10490,-14329
263,-10490,-15097
-505,-10235,-15097
-505,-10235,-14841
-249,-9979,-13817
-249,-9979,-13817
-505,-9723,-14073
7,-9722,-14329
519,-9722,-14073
519,-9722,-13561
263,-9722,-13817
263,-9210,-13817
263,-8442,-13561
519,-7418,-12281
1031,-6650,-11001
1031,-6394,-10233
1031,-5370,-8697
1799,-4090,-7161
3335,-3578,-5369
4615,-1786,-5113
4871,262,-6904
5895,2566,-9976
6407,2822,-10744
8199,5126,-15096
9479,6662,-17656
10503,8198,-19448
10503,7942,-19448
10503,6662,-18936
8711,5126,-18936
5639,2822,-17656
3591,-250,-16889
2567,-3066,-16633
1031,-5114,-16377
-505,-7419,-16121
-761,-8443,-15097
-249,-9211,-15097
7,-8954,-14841
7,-8954,-14841
7,-8954,-14585
7,-8954,-14585
775,-8698,-14329
775,-8954,-14329
1031,-8954,-14073
1287,-8954,-14073
1799,-8698,-14329
1799,-8698,-14329
1799,-8442,-14073
1799,-8442,-14073
1543,-8698,-13817
1543,-8698,-13817
2055,-9210,-14073
3079,-8186,-18681
5383,-3322,-30713
8711,5894,15368
13063,18438,-9976
18438,-31738,23304
21254,-14074,-13048
17669,5126,17161
7429,22278,-12791
-7164,29957,-31479
-19196,24325,32265
-24316,6661,-16887
-24572,-17403,15368
-21243,26629,-12280
-15867,15109,21256
-9978,10245,-17912
-6138,5381,2312
-5113,-1275,20487
-4857,-7419,-30713
-3321,-11515,-20985
-2809,-15355,-14585
-2809,-18427,-8441
-2809,-19195,-6649
-1529,-19195,-2297
-249,-18683,-761
519,-17658,1799
520,-17402,3591
520,-17658,3335
1288,-17402,3335
1800,-17402,5127
1800,-17658,6407
1544,-17914,6151
1800,-18170,5895
2056,-18170,6919
2056,-17914,9223
2312,-18170,9479
2568,-18170,9479
2568,-18170,10247
2824,-17914,12039
3336,-17914,13063
3336,-17914,13319
3336,-18170,13831
3848,-17914,15111
4360,-17146,16647
4616,-16634,16647
4616,-16634,16903
4616,-16634,16903
4872,-16122,16647
4872,-15354,16135
5128,-14842,16135
5128,-14842,15879
4360,-14586,15111
4360,-14074,13831
4616,-13306,12039
4360,-12282,10759
4104,-12282,9991
4360,-12282,7687
4360,-11002,5639
4104,-9978,4103
3336,-9978,2823
3336,-9722,519
3592,-8442,-1529
3079,-8186,-3321
2823,-8186,-4345
2567,-8186,-5625
2055,-8186,-7673
2055,-7930,-8185
2055,-7930,-8441
1543,-7674,-9465
1543,-7930,-10489
1799,-7930,-11769
1287,-8186,-11769
1031,-8186,-12025
775,-8442,-12025
775,-8186,-12025
1031,-8186,-11769
519,-8186,-12025
263,-8186,-12025
519,-8186,-11769
263,-8954,-11769
-505,-8955,-12025
-505,-9211,-12025
-249,-9211,-11769
-505,-9211,-11769
-505,-8443,-12025
7,-8442,-11769
1031,-8442,-11001
1031,-7930,-10489
1031,-6650,-9721
1031,-5882,-8953
1031,-5370,-7673
2567,-4858,-5625
3335,-3578,-4089
3591,-2810,-3577
4359,-1530,-3833
6151,262,-4856
6919,2310,-7928
6919,2822,-9976
8711,5382,-14584
9479,6406,-16120
11271,7174,-17144
11527,7174,-17400
10247,5638,-17400
8455,3590,-17400
6663,1030,-16120
4359,-2042,-14585
2823,-4090,-14073
1543,-6650,-13817
1287,-8954,-13561
1031,-10490,-13049
263,-10746,-12537
263,-11258,-12537
263,-11514,-12281
1799,-11258,-12281
2055,-11002,-12793
1543,-11002,-13049
1543,-11258,-13561
1543,-11258,-13049
1287,-11002,-12537
2311,-11002,-12025
2567,-11258,-12281
2055,-11258,-12281
1799,-11258,-12025
1799,-11002,-12025
2055,-11002,-12281
2823,-11514,-13561
4359,-10234,-18425
6151,-5114,-29945
8967,3846,15624
13575,15622,-10744
18950,30982,22536
21510,-17146,-12280
16389,2566,18697
5125,20230,-10999
-9212,28421,-29175
-21500,22533,-30199
-27132,4357,-12791
-26108,-19451,19208
-21243,24581,-9720
-15099,13317,24072
-9978,8197,-15352
-6906,3589,4104
-4857,-3323,21511
-3833,-9467,-30201
-3065,-13819,-19961
-2553,-17659,-13049
-2553,-20475,-7417
-2553,-20987,-5625
-1017,-20987,-505
7,-20218,775
776,-19706,2311
520,-19450,4103
776,-19194,4615
776,-18938,5127
1032,-18682,6151
1032,-18938,7175
776,-19194,7431
776,-19450,7431
1544,-19450,7687
2312,-19450,8711
2824,-18938,9223
3080,-18938,9991
3336,-18938,9991
3592,-18682,10503
3336,-18682,12295
3592,-18170,13319
4360,-18170,14087
4104,-18170,14599
4104,-18938,15879
4616,-19194,16903
4872,-19194,16647
4872,-18682,16647
4616,-18426,16903
4872,-16890,16647
5128,-16890,15367
5640,-16634,14855
5384,-15866,14087
5384,-15098,13063
5384,-15098,11783
5640,-15098,10759
5384,-14074,9479
5128,-13562,8199
4616,-13306,6151
4616,-12794,3591
4104,-12282,1799
3336,-11770,-249
3335,-11002,-2041
3079,-10746,-3065
3079,-9978,-5369
3079,-9722,-6649
1799,-9978,-7673
1543,-9722,-8953
1543,-9466,-9977
1543,-9978,-10233
1799,-10234,-10745
1543,-10234,-11001
1543,-10490,-11513
1799,-11258,-11769
2055,-11514,-11513
1287,-11514,-11513
775,-11258,-11769
1031,-11002,-12281
1031,-11002,-12793
775,-10490,-13049
263,-10746,-12793
263,-10746,-12281
7,-10746,-12025
-249,-11003,-12025
263,-11258,-12281
775,-11258,-12281
775,-10746,-12537
1031,-9722,-12025
1031,-9722,-11257
775,-9722,-11257
1031,-8698,-9977
1799,-7930,-7161
2823,-7162,-5369
3335,-6394,-5113
3591,-5626,-4345
4359,-3834,-4345
6663,-1530,-6137
7431,-250,-10489
7687,262,-12024
8967,3078,-15864
9991,4102,-17400
11015,4358,-19448
11271,3846,-19448
9991,2822,-18424
7687,-250,-18169
5639,-3322,-17913
4103,-5114,-17913
2311,-7162,-16889
775,-10490,-15609
263,-13818,-15865
519,-14330,-15609
263,-14330,-15609
7,-14586,-15353
7,-14842,-15353
519,-15098,-15609
519,-14330,-16121
1031,-13818,-16889
1031,-14330,-16889
1287,-15354,-16889
1031,-16634,-17145
775,-16122,-17145
1287,-15098,-16889
2311,-14586,-17145
2567,-14586,-17145
2311,-14330,-17145
2311,-14586,-16633
2311,-15354,-17145
3591,-13562,-24313
6151,-7674,26375
10503,3590,3336
15623,16646,-24824
20998,31750,5384
23046,-15354,-32248
18181,5126,-1527
6916,20742,-28151
-7676,24325,24073
-18684,14597,28169
-22780,-4603,-14328
-21756,-27387,21512
-17915,18437,-6648
-12539,9221,24840
-7674,5381,-16632
-5114,-763,3847
-4345,-8955,21255
-3833,-15611,-31481
-2809,-19451,-22521
-2297,-22523,-15097
-2809,-25339,-8185
-2809,-25851,-6905
-1529,-25339,-3833
-505,-24315,-1785
7,-24314,1031
264,-23802,1799
776,-23546,1287
1032,-23290,1543
776,-23546,3079
520,-24058,4871
520,-24314,4871
264,-24826,5127
264,-24826,6407
264,-25082,7431
264,-25338,7687
776,-24826,7687
1544,-24314,7943
1800,-24058,8967
2056,-24058,9735
1800,-24570,11015
1544,-24826,11783
1544,-24826,13575
1544,-24570,14599
2056,-24570,14343
2568,-24314,14343
2824,-24058,14855
2824,-23546,15111
2824,-22010,14599
3336,-21754,14343
3080,-22010,13831
2824,-21498,12551
2824,-19962,11271
3080,-19962,9735
3336,-19706,7943
3080,-19706,6919
3080,-19706,5639
3080,-17914,3591
2312,-16634,1799
2312,-16122,-249
2567,-16122,-2553
2823,-15610,-4089
1543,-14842,-6137
7,-14842,-7673
263,-14842,-8441
7,-14842,-10233
7,-14586,-11769
7,-13562,-11769
263,-13562,-11769
519,-14842,-12281
-761,-15611,-13817
-1273,-15355,-14585
-1017,-14843,-14585
-761,-14843,-13817
-761,-15099,-13817
-761,-15099,-14585
-505,-14843,-15097
-1017,-14587,-15097
-1017,-14843,-14841
-1017,-14843,-14329
-761,-14843,-14585
-505,-14843,-14585
-761,-14075,-14329
-1017,-13819,-14073
-761,-13563,-14073
-249,-13819,-14073
7,-13050,-14073
-249,-12283,-13561
7,-11770,-12793
263,-11258,-11513
519,-10234,-9977
775,-8954,-8441
1287,-8698,-7417
1543,-8186,-6905
3079,-6394,-6905
4103,-3834,-7161
4359,-2554,-10233
4871,-2554,-11513
6919,1030,-15608
7943,2054,-16888
8711,2822,-17912
8455,2822,-18168
8199,1542,-18168
6407,-250,-17145
3079,-3322,-15353
1031,-6394,-14329
263,-8698,-14585
-249,-10747,-13817
-1273,-12283,-13049
-1273,-13307,-13049
-1273,-13563,-13049
-1017,-13563,-12793
-1017,-13819,-13049
-1017,-13819,-13049
-1017,-13819,-13561
-761,-13051,-13561
-505,-12795,-13817
-249,-12795,-13817
-249,-13051,-13561
-505,-13051,-13305
-505,-12283,-13305
-505,-11515,-13049
263,-11514,-13049
519,-11770,-13305
263,-12026,-13305
519,-11770,-14329
2567,-9466,-20473
4871,-2554,30471
8199,7686,8968
13063,20486,-18424
18694,-28666,14088
20230,-9978,-22776
14341,8710,8713
3077,23558,-18935
-10236,27653,-32503
-20220,18181,-29687
-25084,-2555,-7416
-23804,-26875,28424
-19451,19973,264
-13818,11525,30984
-8698,7429,-10744
-6138,1797,9224
-5113,-4859,26631
-3833,-9723,-26361
-3321,-13819,-17913
-3577,-17915,-10233
-3833,-20219,-4345
-3577,-20219,-3577
-1785,-19707,-249
-761,-19451,1799
-504,-18939,4615
-248,-18683,5383
-248,-18171,5383
-248,-18171,5895
8,-19194,7431
264,-19450,8967
8,-19450,8711
520,-19450,8711
1032,-19194,9223
1032,-19450,10247
776,-19450,11783
1288,-19450,12039
1544,-19194,12551
2312,-19194,14087
2056,-18938,15111
2568,-18938,15111
3080,-18682,15879
3336,-18682,17159
3336,-18938,18183
3336,-18682,18439
3336,-17914,18439
3848,-17914,18183
4104,-18170,18183
3848,-17146,18183
3848,-16634,17159
4360,-16378,16391
4616,-16122,15879
4616,-15098,15111
4872,-14330,13831
4872,-13818,12039
4872,-13306,10503
4104,-13050,8967
3336,-12026,6407
3336,-11258,4359
3336,-11002,3079
3080,-10490,775
2824,-9722,-1529
2567,-8954,-3065
2567,-9210,-4345
2567,-8954,-4601
2055,-8954,-6137
1543,-8954,-7673
1543,-8954,-7929
1287,-8698,-8441
1543,-8954,-9465
1543,-8954,-10233
1031,-8698,-10489
775,-8698,-10489
519,-8698,-11513
1031,-8698,-11513
1543,-9210,-11257
1287,-9210,-11001
1031,-9466,-11001
1031,-9210,-11513
263,-9722,-11257
7,-9722,-11001
7,-9978,-11001
263,-9978,-11257
263,-9722,-11257
263,-9722,-11001
519,-9722,-11001
775,-8698,-10745
1543,-8442,-9465
1799,-7418,-8441
2055,-6394,-7673
2567,-5882,-6137
3335,-4858,-4601
4615,-3578,-3321
4871,-2554,-3321
6151,-1274,-4857
7431,262,-7416
8199,2566,-10488
8711,3078,-11768
11015,5382,-15864
12039,5894,-17144
12295,6406,-17400
11527,5894,-17400
9991,3590,-17656
7431,518,-16632
5127,-2042,-14841
3335,-4090,-14329
2311,-6650,-14329
1031,-9978,-13817
1031,-11258,-13049
1287,-11002,-12025
1287,-11514,-12281
1031,-12282,-12281
1287,-12538,-12025
1287,-12026,-12025
1287,-11258,-13049
1543,-11258,-13049
1799,-11770,-12793
1799,-11770,-12793
1799,-11770,-12793
1799,-11514,-12281
1799,-11514,-12025
1543,-11770,-11769
2055,-11770,-11769
2567,-11770,-11769
3079,-11514,-11769
3335,-11258,-17145
5127,-7162,-28153
8711,1798,18952
13575,14342,-6648
18694,28934,27912
20998,-19962,-7672
19205,-506,22536
8453,17926,-7671
-6652,27653,-28663
-19452,23557,-31991
-24828,6661,-16375
-24060,-16123,13832
-19707,27909,-13816
-14331,13573,21512
-8186,8197,-17400
-4346,4101,3336
-3321,-2043,20999
-2553,-8699,-30457
-1017,-13819,-20729
-249,-17147,-13561
-249,-19963,-7417
-505,-21755,-3321
263,-21498,-3065
2055,-20730,263
2568,-20474,2311
2568,-19450,4103
2312,-18938,4359
3336,-18682,4359
3848,-18938,6151
3336,-19194,7943
3080,-19706,7943
3592,-19706,7687
4104,-19706,8199
4104,-19450,9735
4360,-19450,10503
4360,-19962,10759
4616,-20218,11783
4872,-20218,12807
5128,-19962,14343
5384,-19450,14855
5384,-19706,15367
5640,-19450,16135
5896,-18682,16903
6152,-18170,17415
6152,-17914,17159
6408,-17146,17159
6664,-16378,17671
6664,-15866,17927
6664,-15354,17159
6920,-15098,16391
6664,-15354,15367
6920,-15098,14087
6664,-15098,12807
6408,-14842,11527
6408,-14074,10503
6408,-12794,8967
6408,-12026,7431
6920,-11514,5639
6664,-11002,3335
6152,-9978,1287
5640,-9978,-761
4871,-10234,-2553
4359,-10234,-4345
4615,-9978,-5369
4615,-9722,-6393
4103,-9978,-7673
3591,-9722,-8697
3591,-9466,-9977
3335,-9722,-10233
3079,-9978,-10489
3079,-9978,-10489
3335,-9210,-10745
3335,-8954,-10745
3079,-9978,-11001
2567,-10746,-11257
2567,-9978,-11769
2311,-9466,-12793
2055,-9466,-13305
2311,-10234,-13049
2567,-11002,-13049
2311,-11258,-12537
2055,-10746,-12537
2311,-9722,-12281
1799,-10234,-12793
2311,-9978,-13305
2567,-9978,-12793
2567,-9466,-11769
2567,-8442,-9977
3335,-7418,-8953
4103,-7162,-8697
4359,-6394,-6905
4615,-5370,-5625
6407,-3322,-5369
7687,-1786,-5625
8711,-250,-7417
9479,774,-10744
10247,2566,-14072
11015,3078,-14584
13063,4358,-17400
13575,4870,-18680
13575,5126,-19960
13319,4358,-20216
11527,2566,-19448
8199,-1274,-17657
6151,-4090,-16121
5383,-6394,-15097
5127,-9210,-15097
3591,-12026,-15353
2311,-13050,-15353
2823,-13050,-16121
3335,-12538,-16633
3591,-12538,-16889
3591,-12538,-15865
3847,-12538,-15609
3591,-13306,-15865
3591,-14074,-16121
3591,-14586,-16121
4103,-14330,-15097
4615,-13818,-14329
4871,-13306,-14841
4871,-13306,-15609
5127,-12794,-15865
5127,-12538,-15865
5127,-12794,-15097
5639,-13306,-16377
6663,-11514,-23801
9991,-5370,26119
14343,5638,3080
18951,20230,-25848
24070,-30202,5384
24582,-12538,-31736
18693,7174,-1271
6404,22022,-27639
-7932,25605,25097
-17404,15365,30985
-20220,-4347,-10744
-18684,-26875,25352
-15099,19205,-3832
-9467,8965,27144
-4346,5381,-14840
-1786,517,5128
-1785,-6651,22023
-761,-12795,-30969
519,-17146,-21753
519,-20730,-14073
7,-23290,-7929
7,-24314,-5113
775,-23802,-5113
3079,-21242,-2809
3335,-20218,-1017
3847,-20474,263
4104,-20474,519
4360,-20474,1543
4104,-20730,2823
3592,-21498,3079
3848,-22010,3079
3592,-22010,3079
3592,-22010,4359
3592,-22010,6663
3848,-22266,6919
5128,-21242,6919
5128,-21242,8199
4872,-20986,9991
5128,-20986,11015
5896,-21498,11015
5896,-21242,11271
5896,-20986,12551
5896,-20218,13063
6664,-18426,12807
7432,-17914,13063
7688,-18682,14087
7432,-18938,14087
7432,-19194,13831
7176,-18682,12039
7176,-17914,11527
6920,-16378,10247
6664,-15098,9479
6920,-15098,7943
6664,-15354,6151
5896,-14842,4871
6152,-14074,2567
6152,-13562,263
6152,-12282,-2297
6151,-11514,-3833
5895,-10746,-5881
6151,-10490,-8185
5895,-10234,-10233
5639,-9722,-11257
5639,-9978,-12793
5639,-10234,-14329
5639,-10234,-15353
4871,-10490,-15865
4615,-9978,-16633
3335,-9466,-17145
3335,-8954,-17657
4103,-9210,-17913
4103,-9978,-17913
3847,-10234,-18169
3335,-10490,-19449
3335,-10746,-19193
3335,-11002,-18937
2823,-11002,-19449
3079,-10746,-19449
3079,-10490,-19449
2823,-11002,-18937
3079,-11258,-18425
3079,-10746,-18169
2311,-10490,-18425
2055,-10746,-18425
2311,-10746,-18169
3079,-10490,-17657
3335,-9466,-17401
3591,-7930,-16377
4103,-7162,-14585
4103,-7162,-13817
4871,-6650,-12793
5639,-5626,-12025
5895,-3322,-11513
6663,-2042,-12025
7943,-506,-14585
8967,1798,-18168
9735,4102,-20984
9991,4614,-20984
11783,6150,-23032
12295,5894,-23800
11783,5894,-23800
10247,4102,-23288
7943,518,-22008
6151,-2298,-21753
4359,-4346,-21753
3079,-6394,-20985
2055,-8954,-19705
1543,-11258,-19705
1799,-11258,-20217
1799,-11514,-19961
1799,-11770,-18681
1543,-11514,-18681
2311,-11258,-18681
3079,-11258,-19193
2567,-11258,-18937
2311,-11514,-18425
2055,-11258,-18681
2311,-11258,-18681
2567,-11258,-18425
2823,-10490,-18425
2567,-10234,-18681
2823,-10234,-18937
2823,-10234,-18425
3335,-10490,-18425
4103,-9722,-22009
5895,-4602,32007
8967,4102,12808
14599,16646,-13304
20230,32006,20232
24326,-16122,-15608
22533,3078,14089
14341,20742,-17399
1028,29702,28169
-12028,26373,24329
-19196,9477,-25591
-20220,-14331,5128
-17659,29957,-22264
-13563,17157,12552
-8186,11781,-25336
-4346,7173,-4856
-3066,773,12808
-2553,-4603,28423
-1529,-9211,-26105
-505,-13051,-18937
-761,-16123,-12537
-505,-16891,-7161
1031,-16122,-5113
2055,-15866,-4857
2567,-15098,-2809
2567,-14586,-249
2567,-13818,519
2824,-13818,775
3336,-13818,1543
3592,-13818,3591
3848,-14074,4359
3336,-14330,4359
3592,-14330,4615
4104,-14586,5895
3848,-14074,7431
4104,-14074,7687
4872,-14330,8199
4872,-14330,9479
4616,-14074,11271
4872,-14074,11783
5128,-14074,12295
5384,-13818,13319
5640,-13818,14087
5896,-14074,14599
6664,-13306,14855
6664,-12282,14855
6408,-11770,15111
6408,-11514,15111
6408,-11770,14855
6408,-11002,14087
6408,-10234,13319
6408,-9722,12807
6408,-9466,11015
6408,-9210,9735
6664,-8442,8967
6664,-7930,6919
6408,-7162,4359
5896,-6906,3079
5640,-5882,1287
5384,-5626,-1017
5127,-5626,-3321
4871,-5370,-4089
4359,-4602,-4857
4359,-4602,-6905
4359,-4346,-8441
3847,-4346,-9209
3335,-4602,-9465
3079,-4602,-10489
3335,-4346,-11001
3335,-3834,-11769
3335,-4090,-12537
2823,-4346,-12793
2311,-4090,-12793
2055,-4090,-12793
2567,-4090,-12793
2823,-4090,-13049
2823,-3834,-14073
2823,-4090,-14841
2823,-4602,-14073
2567,-4346,-13817
2311,-4346,-13817
2055,-4602,-13817
2055,-4602,-13817
2055,-4346,-14073
2311,-4346,-13561
2311,-4346,-13305
3591,-3066,-12281
4103,-1786,-11257
3591,-1274,-9977
3847,-506,-8441
4103,262,-7160
5383,1286,-6136
6407,2054,-5624
7687,3590,-6136
8711,5894,-8184
9479,7942,-12280
10759,8966,-15352
11271,9990,-17144
11527,10758,-17656
12807,11782,-19704
12807,11782,-20216
12039,9478,-19960
9223,6662,-19192
6663,4358,-17400
5383,1798,-17144
4103,-1274,-17145
3079,-4090,-16889
2311,-5370,-16633
2311,-5882,-16121
2567,-6650,-16377
2567,-7418,-15865
2567,-7418,-15609
2567,-6650,-15609
2823,-6138,-15353
3335,-5882,-15353
3079,-6394,-15609
2567,-6906,-15609
2311,-6650,-15353
2567,-6394,-15353
2567,-6394,-15609
3079,-6650,-15353
3079,-6650,-15353
3079,-6650,-15865
3591,-6650,-15609
4615,-6650,-18425
5895,-3578,-27129
8711,3590,21256
13063,15110,-2040
18182,29446,-31992
22022,-19450,-1016
21509,-762,29192
12549,17670,-3319
-1532,30981,-27639
-15612,30981,29193
-23804,17669,-27383
-25596,-4603,264
-22011,-27643,-28408
-16891,21253,6920
-11258,14597,-29688
-5882,10245,-6904
-4090,4357,11528
-3321,-2043,27143
-2041,-7675,-27385
-761,-11515,-19449
-761,-13819,-12537
-1017,-15867,-7673
519,-15866,-4857
2311,-15354,-3577
2311,-15098,-2553
2311,-14330,519
2568,-14074,1543
3336,-13818,1799
3592,-13818,2567
3336,-14074,4103
3336,-14842,4615
3336,-14842,4871
3336,-15098,4871
3336,-15098,5895
3592,-14842,7175
3592,-14842,7687
4104,-14586,8455
4360,-14586,9479
4872,-14330,10759
4872,-14586,11271
4872,-14330,11527
5640,-13562,12551
5640,-13562,13319
6152,-13562,14087
6408,-12538,14087
6920,-11258,14343
6920,-11258,14599
6920,-11258,14599
6920,-11258,13831
6664,-11002,12807
6920,-9722,12039
7432,-8954,11527
8456,-8698,10759
8200,-8954,8711
6920,-8186,7943
6408,-7674,7687
6152,-7674,5639
5896,-7930,2567
5896,-7418,519
6152,-6394,-761
6407,-5370,-2553
5639,-5114,-4857
5383,-5370,-5881
5127,-5370,-6649
4615,-5370,-7417
4359,-5370,-9977
4359,-5370,-11001
4103,-5370,-11257
3591,-4858,-11513
3079,-4346,-12793
2567,-4346,-14073
2823,-5370,-13817
2823,-5626,-13305
2567,-5626,-13561
3079,-5626,-13817
3335,-5626,-15353
2823,-5626,-15609
1799,-5882,-15097
1799,-5882,-14841
2055,-6138,-14841
2055,-6138,-15097
2055,-6138,-15097
1543,-5626,-15097
2055,-5370,-15353
2311,-5626,-15609
2567,-5370,-14841
2567,-4602,-13561
2311,-3834,-12281
3079,-3066,-11513
3591,-2298,-10745
3591,-2042,-8697
3591,-1274,-7929
4615,6,-8184
6919,3078,-8696
8199,5126,-10488
8967,6150,-13816
10247,7430,-17144
11527,8710,-19704
12551,9222,-20984
12807,9478,-20984
13063,9222,-22520
11527,7942,-22520
8967,4870,-21240
6151,2054,-19704
4615,-506,-18681
3847,-3322,-18169
2823,-5626,-17913
1799,-7930,-17145
1799,-8698,-17401
1799,-8698,-17401
1543,-8954,-17401
2055,-9210,-17657
2567,-8954,-18169
2567,-8698,-18425
2567,-8954,-18169
2823,-9210,-17657
2823,-9210,-17657
2311,-9210,-17657
2311,-9466,-17913
2567,-9722,-17657
3335,-9722,-17145
3335,-9978,-17145
3335,-9978,-17401
3079,-9722,-17145
3335,-9978,-16889
6663,-5882,-29689
9223,1542,18440
13319,13318,-7160
19462,28166,27912
24070,-20986,-6904
22789,-2810,22280
14597,15878,-11255
772,27398,31497
-12540,27653,23561
-20220,13317,-29431
-22268,-8443,-1528
-19964,-30715,-30200
-14331,19461,6664
-8954,11781,-29688
-4858,6661,-8440
-3834,261,10248
-3321,-6395,26375
-1785,-11515,-27385
-1017,-15355,-19705
-1017,-18683,-12537
-1017,-20987,-7929
-249,-21243,-4601
775,-20218,-3577
1031,-19450,-2041
1287,-19450,-249
1287,-19450,1031
1544,-18682,1287
2312,-18682,1031
2056,-18682,2567
2056,-19194,3591
2312,-19706,3847
2056,-20474,3847
1544,-20986,4615
1544,-20730,5895
1544,-20218,6919
2312,-19194,6919
3080,-19450,7943
3336,-19962,9479
3848,-19706,10759
3848,-19706,10759
3848,-19706,11271
4616,-18938,12551
4872,-18682,14087
4616,-18682,13831
4616,-18426,14087
4616,-18170,14343
4872,-16890,14599
5128,-16122,13575
4360,-16378,12551
3848,-16378,12807
4616,-16378,11527
4872,-15354,9991
4872,-14074,8455
4872,-14074,6919
4872,-13562,5383
4616,-12794,3591
4872,-12282,1287
5128,-11514,-1017
3847,-11258,-2553
3591,-10746,-4601
4103,-10490,-6905
4615,-9978,-8441
4871,-9466,-8953
3591,-10234,-10233
3335,-10234,-11513
3591,-10234,-13305
3591,-10234,-13817
2823,-9466,-14329
2311,-9466,-14585
2567,-10234,-15609
2311,-10746,-15609
2055,-10490,-15609
1543,-10746,-15865
2055,-10490,-15865
2311,-9978,-16121
1799,-10234,-16121
1799,-11002,-15865
1543,-12282,-15865
1543,-12026,-15609
1287,-11002,-15609
1287,-11258,-15865
1031,-11258,-15865
1031,-11002,-15609
1287,-10746,-15097
1287,-11002,-15097
1287,-10490,-15097
2311,-8698,-14329
3079,-7930,-12281
3079,-7674,-10745
2823,-7418,-9465
4103,-5626,-8441
5383,-4346,-7673
6151,-3578,-7673
6663,-1786,-8953
7943,1030,-12280
9479,3078,-15352
9735,3590,-18168
10503,4358,-19192
10759,5126,-19448
11015,5638,-19960
10503,4358,-20216
8711,1542,-19192
6151,-1274,-18169
4615,-3322,-17145
3335,-6138,-17145
1799,-8954,-16633
775,-11002,-15865
1031,-11258,-15353
775,-11514,-15353
775,-12026,-14841
775,-12026,-14841
775,-12282,-14585
1031,-11770,-14841
1543,-11258,-14841
1287,-11258,-15097
1287,-11514,-15097
1543,-11770,-15353
1543,-11770,-14585
1287,-11770,-14585
1287,-11514,-14841
1543,-11258,-14329
1543,-11002,-13817
2055,-11258,-13561
2055,-11514,-15865
2567,-11002,-17401
6407,-1530,27399
10247,8966,5128
15879,23046,-24312
20998,-26362,7176
22534,-7418,-28664
16389,11782,3337
4869,25606,-24055
-8956,28165,29193
-19452,18181,-31735
-22780,-3323,-6392
-22012,-27899,28424
-17659,19717,-248
-12539,12037,31240
-7930,8197,-10488
-5626,2309,8968
-4601,-4603,25607
-3577,-9467,-27129
-3065,-13051,-17401
-2809,-16635,-10745
-2553,-19195,-6137
-1529,-19195,-3065
7,-18170,-505
263,-17658,1287
8,-17658,2823
264,-17146,3079
1032,-16634,3847
1032,-16890,4615
1032,-17402,5639
1032,-17146,6663
1032,-17146,7175
1032,-17402,7431
1032,-18170,8455
2056,-18170,9735
2568,-17658,10503
2312,-17402,11527
2568,-17146,12807
3336,-17402,14343
3592,-18170,14599
3592,-18170,15367
3592,-17914,16391
3336,-17658,16903
4360,-17146,17415
4872,-16634,17415
4616,-16378,18439
4872,-16122,18695
4360,-15354,18951
4104,-15098,18183
4104,-14842,17159
4104,-14842,16647
4360,-14842,16903
4360,-14074,14599
4616,-13050,13319
4872,-12538,12551
4872,-12538,11015
4872,-11770,9223
4616,-11258,6663
4104,-10490,4871
3592,-10234,3335
3592,-9722,1799
3592,-8954,-505
2823,-8442,-2809
2311,-8442,-3321
2311,-8442,-4345
2311,-8186,-5881
1799,-8186,-7161
775,-7930,-7417
1287,-7930,-8185
1543,-8186,-8697
1543,-8186,-9465
1543,-7930,-9465
775,-7930,-9721
519,-8186,-9977
775,-8442,-10489
775,-8186,-10489
519,-8186,-10233
519,-8954,-10489
519,-8954,-10745
775,-8698,-10745
519,-8698,-11001
263,-8698,-10489
7,-8954,-10489
7,-9210,-10745
7,-9466,-10745
7,-8698,-10489
263,-7674,-9977
775,-7674,-9465
775,-6906,-7929
1287,-5882,-5625
1799,-5114,-4089
2823,-4602,-4089
3079,-3834,-3833
4103,-2298,-3833
5383,262,-4856
6919,2054,-8440
7175,3078,-11768
8199,4870,-14328
9735,6150,-15096
10247,6406,-15864
10247,6150,-16632
10503,5894,-16888
7431,2822,-16120
4871,262,-15352
2567,-2554,-14841
1031,-5114,-14073
519,-7418,-13561
7,-9722,-12793
-1017,-11515,-12537
-761,-11515,-12537
-249,-11515,-12281
7,-11770,-12281
519,-11514,-12025
775,-11514,-12025
519,-11514,-12281
-761,-12027,-12281
-761,-12027,-11769
7,-12282,-11001
7,-12026,-11001
519,-11514,-11257
1287,-11770,-12025
1543,-11770,-12025
1543,-11514,-12025
1543,-11514,-11769
1543,-11514,-12281
3335,-9978,-19705
4615,-8698,-23801
9223,6662,8200
13575,20230,-18936
18438,-29434,13064
20230,-12026,-23032
13317,7430,8457
5,23046,-17655
-14332,28165,-31991
-24316,17669,-27383
-27132,-2811,-6136
-25340,-25851,30216
-20731,20741,3080
-14074,10757,-31992
-8186,6661,-8696
-6650,1285,11528
-5881,-5883,28423
-4345,-11771,-24569
-2809,-15867,-16889
-3065,-18683,-9209
-2809,-20987,-3065
-2553,-21755,7
-760,-21755,519
776,-20474,2311
264,-19962,4871
-248,-19963,5639
-504,-19707,5383
8,-19450,6151
776,-19450,8199
776,-19706,9735
776,-19450,9479
1544,-19450,9479
2056,-19962,10503
1800,-20218,12039
1800,-20218,12039
1800,-19962,12295
2056,-19706,13831
2312,-19962,15111
3080,-19706,15879
3080,-19962,16391
3336,-19962,16391
3336,-19706,17671
3336,-19194,18695
3336,-18938,18695
3592,-18682,18695
3848,-18426,18695
3592,-17914,18695
4104,-17402,18695
3848,-17146,17927
3592,-16890,16391
3336,-15866,16647
3592,-15354,16647
4104,-14330,15367
4104,-14074,13575
4360,-13050,11527
4360,-12282,10247
3592,-12538,8711
3080,-12026,6151
3336,-11002,3847
3336,-10234,2311
2824,-10234,775
2056,-10234,-1529
1799,-9978,-3833
1799,-8954,-4601
1543,-9210,-5881
2055,-8954,-6905
2055,-8698,-7929
2055,-8954,-8697
2055,-8954,-9465
1287,-8954,-9465
1287,-9210,-9721
1287,-8442,-9977
1287,-8442,-10489
775,-8954,-10745
519,-9978,-10745
519,-10234,-11001
775,-9978,-11001
7,-9978,-11001
-761,-11003,-9977
-249,-12027,-9721
-505,-12283,-9977
-505,-11259,-9721
-761,-10747,-9721
-761,-11003,-9721
-249,-11515,-9977
7,-11258,-9721
263,-9978,-8441
263,-8442,-7417
519,-8186,-7161
775,-8186,-5113
2311,-7674,-3833
2823,-6394,-3321
3335,-5114,-3577
5127,-2554,-5369
6407,6,-7928
6919,1286,-11512
8455,3078,-14328
9991,4358,-16376
10503,4870,-17912
10503,4870,-18168
9735,3078,-17912
8967,2054,-17912
4871,-2042,-17145
2823,-4858,-15865
775,-7162,-15865
-761,-9211,-15609
-1529,-11515,-15097
-1273,-12539,-14329
-1273,-12795,-14329
-1273,-13307,-14329
-1017,-13819,-14329
-505,-13819,-14585
-505,-13563,-14585
-1017,-13563,-14841
-1017,-13819,-15865
-1529,-13819,-16121
-1529,-13563,-15609
-1529,-13563,-14329
-1273,-13819,-14585
-761,-13819,-14329
-761,-13563,-14073
-761,-13563,-13817
-249,-13563,-13305
775,-14074,-15097
1799,-12794,-21241
4359,-6138,30727
5383,-2554,25607
13063,16902,-18680
18438,31238,13064
19718,-16890,-23032
14853,3078,8201
3077,19462,-20471
-11260,24837,29193
-23548,18437,30217
-27644,-507,-13560
-26364,-23803,19464
-21243,21253,-8952
-15867,9989,23560
-11258,5637,-17144
-8442,773,3080
-6649,-6139,20231
-5881,-12795,-32249
-5113,-17147,-22521
-4601,-19707,-14585
-4601,-22779,-9209
-4089,-24827,-6137
-2809,-24059,-3833
-2297,-22779,-2553
-2041,-22523,-249
-1529,-21755,1031
-1016,-21499,1543
-248,-20987,2311
-248,-21755,3335
-760,-22523,3335
-760,-22523,3079
-504,-22523,3335
520,-22266,4359
520,-22266,5383
264,-22266,6407
264,-22266,7431
264,-22266,7687
1032,-22266,9735
1800,-22010,10759
2312,-22010,10759
2568,-21242,11015
2824,-20730,12551
3336,-20730,13831
3080,-20218,13831
2824,-20474,13831
2824,-19450,13831
3080,-18682,13831
3592,-18682,14087
3080,-19194,14087
2824,-19194,13063
3080,-18682,11015
2824,-17146,10759
2824,-16634,10759
3080,-16890,8199
3080,-15866,6151
2824,-14586,4871
2824,-14330,4103
2568,-14330,1799
2056,-13562,7
2056,-12282,-1785
2055,-12026,-3577
1799,-11770,-5113
1799,-11514,-7161
1031,-11002,-8185
1031,-11002,-8441
1031,-10490,-9465
7,-11514,-11001
-249,-11771,-11769
-249,-11515,-11769
7,-11514,-12537
7,-11258,-13561
263,-11258,-13561
-249,-11515,-13305
-1017,-12539,-13561
-1017,-12539,-13561
-1017,-11771,-13305
-1017,-12027,-13305
-761,-11771,-13305
-1017,-12027,-13561
-1273,-12283,-13561
-1273,-11515,-13817
-1273,-11259,-13817
-1529,-11515,-13817
-1017,-12027,-13049
-249,-12027,-13049
7,-11258,-12281
7,-10746,-11769
775,-9978,-10745
1287,-8698,-9465
1543,-7674,-8697
1799,-6394,-7673
1543,-5882,-5881
2055,-5882,-5881
3591,-4346,-7417
4359,-3066,-8697
5127,-762,-11001
6407,1286,-13560
7431,2054,-15864
8455,2566,-16888
8711,2822,-17144
7687,2566,-17144
6407,518,-17144
5383,-1018,-16889
1543,-5626,-15865
263,-7674,-14841
-505,-10491,-14329
-1273,-13563,-14329
-2297,-15099,-13561
-2553,-15099,-13305
-2297,-14843,-13305
-2297,-15099,-13305
-2553,-15611,-12537
-2041,-14587,-12281
-1273,-14075,-12537
-1273,-14075,-12793
-1785,-14075,-12793
-1785,-14331,-12281
-1529,-14587,-11769
-1529,-14075,-12025
-1529,-13563,-12281
-1273,-13563,-12025
-1529,-13819,-11257
-1529,-13819,-11257
-1273,-14075,-12537
775,-12282,-18681
3335,-7162,-30969
5895,2310,13832
7175,5894,6408
17927,31494,17160
21510,-16634,-19704
18437,2310,10505
8709,19206,-18935
-4092,26629,28937
-15868,19461,29449
-22780,773,-16119
-23036,-22011,17416
-19963,23557,-10488
-15355,12037,22792
-10234,6917,-15352
-7930,2053,5896
-7417,-4347,23303
-6649,-10491,-28153
-6137,-15099,-17145
-5625,-18939,-8697
-5881,-20987,-3065
-4857,-21499,1287
-3064,-21243,3335
-2296,-20731,5383
-2040,-19451,7175
-2552,-19451,7687
-2808,-19195,8455
-2552,-18683,9735
-2296,-18427,10247
-1528,-18427,10503
-1528,-18427,10247
-1272,-18427,10247
-760,-18171,11527
-504,-18171,12551
-504,-17659,12807
-504,-17659,13063
-504,-17659,14599
-248,-17403,16135
-248,-16891,16647
-248,-16891,16647
776,-16634,17927
1288,-16122,19719
1288,-15610,19719
1288,-15354,19719
1032,-15098,20487
1032,-14330,21255
1288,-14074,21255
1800,-13562,20487
2312,-13562,20487
2312,-12538,19975
2312,-12026,18439
1800,-11514,17159
1544,-11002,16135
1544,-10490,16391
1288,-9210,14087
1544,-8954,11271
1288,-8442,9223
1544,-7674,7943
1288,-7162,6151
8,-6906,4103
-248,-6651,1799
8,-6138,519
-248,-5627,7
-504,-5627,-2041
-505,-5883,-3321
-1017,-5883,-4089
-1017,-5627,-4345
-1273,-5371,-5369
-1529,-5627,-6393
-1529,-5627,-6905
-1529,-5371,-7161
-1529,-5627,-7417
-1529,-5883,-7417
-2041,-5883,-7673
-1785,-5883,-8185
-2041,-5883,-8185
-2041,-6139,-7929
-1785,-6651,-8441
-1785,-6651,-8697
-2041,-6395,-8697
-2041,-6395,-8441
-1785,-6651,-8441
-1529,-6395,-8185
-1785,-6395,-8185
-1785,-5883,-7929
-1017,-5115,-7929
-1017,-4603,-7673
-1017,-3323,-6137
-761,-2555,-4345
7,-2042,-3321
775,-1530,-2553
1543,6,-1528
2823,1030,8
3592,2566,-760
5127,4358,-3576
5639,6150,-7672
6407,7686,-10744
7687,8454,-11512
8967,9222,-13304
9223,9734,-15096
8967,8966,-14840
7431,7686,-13816
4871,4358,-13304
3847,3334,-13304
1031,262,-12536
7,-2554,-11769
-1273,-5115,-10233
-2297,-7163,-10489
-2297,-7675,-10489
-2041,-7675,-10233
-1529,-8187,-9977
-1785,-8187,-9721
-2041,-8187,-9721
-1785,-7931,-10233
-1529,-7931,-11001
-1017,-7675,-11001
-1017,-7675,-10233
-1273,-7931,-9721
-1529,-8187,-9977
-505,-7419,-9977
-249,-6907,-9721
-505,-7163,-9465
-249,-7419,-9465
263,-7674,-9209
1799,-7162,-13561
3079,-3322,-24313
5383,4614,23304
10247,16902,-2296
12550,20486,-11000
18950,-17402,-3064
16901,1542,27401
6661,19974,-3575
-7676,30469,-25079
-20988,28677,-30711
-28156,12805,-17143
-28668,-10235,11528
-24315,-31995,-16376
-18683,19205,19208
-12794,13061,-18680
-8442,8709,3080
-6649,2565,21256
-5625,-3835,-29177
-5113,-8955,-18425
-4089,-12795,-11257
-3833,-15867,-5369
-3577,-16891,-1017
-2041,-16891,1543
-248,-16123,2567
8,-15354,4871
8,-14842,6407
264,-15098,7175
8,-15098,7175
8,-14842,8455
776,-14586,9479
1032,-14586,9479
1288,-15098,9479
1032,-14842,9991
1288,-14586,12295
2056,-14586,13063
2312,-15610,12807
2056,-15866,13831
2824,-15354,14855
3336,-14842,15367
3592,-14586,15879
3592,-14842,16391
3848,-14586,17671
3848,-14586,18695
3592,-14074,18695
3592,-13562,18951
3848,-13306,19975
4616,-13306,19719
4872,-12538,19463
4616,-11770,19207
4872,-11770,18439
5128,-11002,16903
5128,-10234,15623
5128,-9722,15367
4872,-9210,14599
4872,-8698,13575
4872,-7930,10503
4872,-7418,8711
4872,-6650,7431
4616,-6138,4615
3848,-5882,2311
3336,-5626,519
3080,-5370,-761
3079,-5114,-2297
2823,-4602,-3833
2823,-4090,-4601
2055,-4090,-5625
1799,-3834,-6649
2055,-4090,-7673
1287,-4602,-8441
1031,-4602,-8697
1031,-4346,-8697
1287,-4346,-9209
1031,-4346,-9977
775,-4858,-10489
775,-4858,-10233
1031,-4858,-10233
775,-4858,-11001
519,-4858,-11001
1031,-4858,-11001
1287,-4858,-10745
1287,-4602,-10745
1031,-4090,-10489
1031,-3834,-10489
1543,-3834,-10745
2055,-3578,-10745
2055,-3834,-10489
1799,-2810,-9977
3079,-1274,-8697
3591,-506,-7417
3591,-506,-5369
3847,262,-4344
4359,1286,-3320
5383,3334,-3320
6919,4358,-3832
7687,6150,-6904
8455,8198,-10744
9735,9990,-13304
11527,10502,-14584
12295,10758,-15864
12295,11526,-16376
12039,11014,-16632
9991,8710,-16120
7687,5126,-15352
5127,2822,-14328
4359,2822,-14584
2311,-1274,-13561
1543,-4858,-13049
1031,-6138,-12025
1031,-6138,-12025
1287,-5882,-12281
1287,-6394,-12281
1031,-6906,-12025
1543,-6906,-12793
1799,-6394,-13049
1799,-6394,-12793
1543,-6138,-12281
1543,-6394,-12025
1287,-6394,-12025
1287,-6138,-12281
1543,-5882,-12025
2311,-6138,-11513
2311,-5882,-11513
2823,-5370,-11513
3591,-5370,-12537
3847,-4858,-18681
5639,774,-30456
9479,10246,15368
15111,23302,-11768
19974,-27898,20232
21254,-23546,9480
16646,7430,17161
4357,24582,-12791
-10748,32005,-30199
-23036,26117,-30199
-27132,7685,-10999
-25852,-15611,21256
-20987,29445,-7416
-15099,17413,26120
-9978,11781,-13048
-6138,6917,6664
-4857,5,22280
-4345,-6395,-29689
-3321,-9979,-18937
-2553,-13051,-12281
-2297,-15099,-6649
-761,-16635,-2553
7,-16890,-249
775,-15354,775
1544,-14330,2311
1288,-14330,3591
1800,-14586,4871
1800,-14586,4871
1288,-14842,4615
1288,-15098,5639
1288,-15610,6407
2568,-15610,7431
3336,-15610,7687
3592,-14586,7687
3592,-14586,8199
3336,-15098,9479
3080,-15354,11015
3336,-15098,10759
3592,-14586,11271
3848,-14586,13063
4104,-14330,14087
4616,-14330,14343
4872,-14074,14343
4872,-14074,15367
4616,-13306,16135
4616,-13050,16135
4872,-12794,15367
4872,-12794,14343
4872,-11770,14087
4616,-10490,13831
4616,-10746,13319
4360,-10490,11783
4616,-10490,11783
4616,-10234,11015
4616,-9210,9223
4872,-8442,8199
4616,-7162,4615
4616,-6906,3335
4616,-6906,519
3592,-6650,-1785
3079,-5882,-2809
3335,-5882,-4345
2823,-5626,-6905
2055,-5370,-7929
1543,-5626,-8953
1543,-5370,-9465
2055,-4858,-9977
2055,-4858,-11769
2055,-4858,-12281
2055,-4858,-12025
1287,-5626,-12537
1031,-5626,-13561
1287,-5882,-14841
1543,-5370,-14841
1799,-4602,-14585
1287,-4858,-14585
1543,-5626,-14585
1799,-5882,-14841
1287,-5882,-15353
1031,-5626,-15097
775,-5882,-15097
1031,-5882,-15353
1031,-5626,-15353
1287,-5882,-14329
1031,-5882,-14073
1799,-5370,-14073
3335,-3834,-14073
3591,-2810,-12025
3591,-2298,-10233
3335,-2042,-9209
3847,-1786,-8953
5127,-1018,-8185
6663,518,-7160
6919,2310,-8440
7943,4358,-11512
9735,6150,-15864
10503,7174,-18424
11015,7942,-18936
11271,8454,-20728
11783,8710,-21496
11271,8454,-21496
9479,6406,-20216
6407,3078,-18936
4615,262,-18680
4103,-1786,-18169
3591,-2554,-17401
1287,-7418,-16889
1287,-8698,-16889
1543,-8698,-17145
1799,-8698,-16889
2055,-8954,-16889
2055,-9210,-17401
1543,-9210,-18169
1543,-8698,-17913
1799,-8698,-18169
2055,-8698,-17657
3079,-9210,-17145
3335,-9466,-16377
2311,-8954,-16377
1543,-8698,-16633
1799,-8442,-16633
2311,-8186,-16377
2823,-7930,-16633
3079,-7930,-19193
4359,-6650,-27129
7175,-1018,24327
12039,10246,1544
17671,24326,-28664
23046,-24570,1800
25094,-6138,29960
25093,1030,18441
8709,28422,-31735
-5884,30981,20489
-16892,19461,26889
-20732,-507,-14072
-19964,-23035,21768
-16379,24581,-7160
-10747,15109,24328
-6138,11013,-16888
-4090,5381,3336
-3577,-2555,20487
-3065,-8699,-31481
-2041,-12795,-22521
-2297,-15611,-15097
-1785,-18171,-9721
-1529,-18939,-6649
-505,-18683,-4857
519,-17658,-3577
519,-17146,-1273
519,-17146,-505
1287,-17146,-761
1799,-16122,519
1544,-16378,1799
1032,-17146,2823
1288,-17914,3079
1288,-17914,3079
2312,-17914,5127
2568,-17914,5639
2568,-18170,6151
2568,-17658,6663
2824,-17146,8455
3592,-17146,9991
3336,-17402,10247
3592,-16634,11271
4104,-16122,12295
4104,-16122,13575
4360,-15866,13831
4104,-15098,13831
4360,-14330,14087
4360,-14074,14087
4360,-14330,14087
4104,-13562,13831
4104,-12282,13063
4616,-12026,11527
4360,-12026,10503
4616,-11258,10247
4616,-10234,8967
4360,-9466,7175
4360,-9466,5383
4104,-8698,4103
4104,-7674,3591
4104,-6138,7
4360,-6138,-2297
3335,-5882,-3833
2823,-4858,-5113
2823,-3834,-7161
2823,-4090,-8185
2567,-3834,-8953
2311,-3322,-9977
2567,-2810,-10745
2055,-2810,-12537
1543,-2554,-13305
1287,-2298,-13561
1287,-2298,-13817
1799,-2298,-14329
1799,-2042,-15097
1287,-2042,-15097
775,-1786,-15353
775,-1786,-15865
775,-2042,-15865
1031,-1786,-15609
1031,-1274,-15609
775,-1018,-16121
775,-1530,-15865
1031,-1530,-15609
1031,-1530,-15609
775,-762,-15865
1031,-762,-15353
1031,6,-15096
1031,1030,-14328
1287,2566,-13560
1799,2822,-11768
2567,3590,-9976
2567,4614,-8696
2823,5382,-8440
5127,6662,-8184
6407,8454,-8184
6919,10758,-10488
7431,12550,-14840
8711,13830,-18168
10247,15366,-19448
11015,16390,-19448
11015,16646,-21240
11015,15878,-21752
10247,14086,-21240
7943,11526,-20728
5383,8710,-19704
3591,6662,-19192
2823,3846,-18424
2567,1286,-17400
1287,518,-17656
519,-1274,-17913
1031,-1786,-17401
1799,-2042,-17401
1799,-2042,-17145
1799,-2042,-16633
2055,-1274,-16633
2567,-1274,-17401
2311,-1786,-17145
2311,-2554,-17401
2311,-2554,-16633
2567,-2042,-16121
2311,-1786,-16377
2311,-1786,-16377
2055,-2042,-16121
2311,-2298,-16377
3335,-2042,-16377
4359,-1530,-20985
5895,2566,-31480
8199,11526,14600
13319,23558,-10488
18694,-26874,23304
21510,-9978,-12280
18437,8966,18185
8453,26374,-12535
4356,30982,-20727
-18428,30725,29705
-25084,14597,-20471
-25084,-8187,11016
-20475,-29691,-16632
-15099,22021,17928
-9722,17157,-21240
-5882,12805,-504
-4346,6917,17416
-3833,-251,32263
-3321,-5371,-23545
-3321,-8443,-16889
-2809,-11259,-11001
-2041,-13307,-6393
-761,-13307,-4601
7,-11514,-3321
775,-10746,-761
775,-10490,775
1288,-10746,1031
1544,-11258,1287
1288,-11258,2567
1288,-11514,4103
1544,-11770,4359
1544,-11514,4359
1288,-11514,5639
1544,-11514,6919
2312,-11770,8711
2568,-11514,8199
2312,-11514,8455
2824,-11514,9991
3336,-11770,11271
3336,-11514,12039
3080,-11514,12295
3336,-11258,13575
3592,-11002,14855
4360,-9978,15367
4616,-9978,15367
4616,-9466,15623
4872,-9466,15367
5128,-8442,14343
5384,-8186,13319
5128,-8186,13063
4360,-7418,12295
4360,-6650,11783
4872,-5882,10247
5384,-5370,8967
4872,-5114,7687
4360,-4346,5639
3848,-3834,4103
3848,-3322,1799
4104,-3066,1287
4104,-2298,-2297
3847,-1786,-4601
3591,-1274,-5881
3335,-506,-7673
3079,-250,-9721
2823,6,-10744
2567,6,-12024
2311,-250,-13305
2311,-250,-13561
2055,6,-14072
2055,-250,-14585
2055,-250,-14329
1031,-506,-14329
775,-506,-14585
775,-506,-15353
775,-762,-15353
1031,-762,-15353
1287,-250,-15097
1031,-250,-15097
775,6,-15352
775,-762,-15353
1031,-1018,-15609
1031,-762,-15097
519,-506,-14585
263,-506,-14585
775,-250,-14585
1799,518,-14584
1543,1286,-13304
1543,2566,-10744
2055,2822,-9464
2823,3846,-8696
3847,4358,-7672
4359,5638,-6648
5895,7174,-6648
7431,9222,-9464
8199,10758,-12536
8711,13318,-15096
9479,14598,-17656
11015,15110,-19960
11783,15366,-20984
11271,15366,-21240
10247,14086,-21240
8455,11270,-20984
6151,8198,-19960
4103,6150,-18680
2311,3846,-18168
1287,774,-18168
1031,-1018,-17913
1031,-1530,-17145
1031,-1530,-17145
1543,-2042,-17145
1543,-2298,-17145
1543,-2298,-16889
1287,-2298,-17145
1543,-2042,-17657
2055,-2042,-17401
2311,-1786,-17401
2311,-1786,-17401
2567,-2042,-17657
3079,-2042,-17657
3335,-2298,-17401
3335,-2810,-17657
2567,-3066,-16377
2567,-3578,-16377
3335,-3322,-19193
4615,-1018,-27385
7943,5894,22536
12551,17414,-248
17926,31494,-30712
21510,-18682,264
20742,-1018,30472
12293,17926,-2295
-1788,32005,-27127
-16124,-32507,28681
-19452,31493,27913
-26108,-763,-2808
-22780,-23035,32008
-17403,26117,2824
-11514,17925,-32504
-6650,14085,-9976
-5114,7941,8456
-4089,773,24584
-2809,-5371,-29177
-1529,-9467,-20729
-1529,-12027,-14841
-1273,-13819,-10233
-249,-14075,-7161
1287,-12794,-5113
2567,-11514,-4345
2823,-11258,-2809
2823,-11258,-1017
2567,-11770,-249
2567,-12538,-249
2823,-12538,519
2824,-12538,1543
3080,-12794,1799
2824,-13050,1799
2824,-13050,2823
3080,-13306,4103
3080,-13306,4103
4360,-12538,5127
4360,-12538,5895
4872,-12794,7687
4360,-13050,7687
4104,-12794,7943
4616,-12538,8967
5384,-11770,9735
5896,-12026,10759
6152,-11770,10759
6152,-11258,11015
6408,-11258,11271
5640,-11514,11271
5384,-11002,9991
5384,-10490,8455
5384,-9722,7687
6408,-8698,7687
6408,-8186,6663
6408,-7418,4615
6408,-7162,3591
5384,-7418,2567
5128,-7418,775
4616,-6650,-2553
3591,-5626,-4601
3335,-5114,-5625
3847,-5114,-6649
4359,-3578,-10233
4103,-3066,-11769
3335,-3066,-13049
2823,-2810,-13561
2823,-2810,-16121
2567,-2554,-16889
2311,-2810,-16889
2055,-2810,-16889
2055,-2554,-17145
1543,-3834,-17145
1543,-4090,-17657
1799,-3834,-18425
1799,-3322,-19705
1543,-2810,-19961
1031,-2810,-19705
1287,-3578,-19705
1287,-3834,-19705
1031,-4090,-19193
1287,-4090,-19449
1287,-3578,-19193
1287,-3578,-19193
1031,-3578,-20217
1031,-4602,-19961
1031,-4346,-18937
1287,-4346,-18937
2567,-2298,-18681
2311,-1530,-17657
2311,-1274,-16121
2311,-506,-14585
2567,6,-14072
3335,1030,-13304
5127,2566,-12792
6407,4614,-13560
6663,6406,-16376
8455,7686,-19704
9735,9222,-22008
9735,9478,-23800
10247,10502,-25336
10759,11014,-26104
11015,10758,-26360
9479,9222,-25080
6407,5638,-24568
4359,2054,-23544
3591,262,-22520
3079,-2298,-22265
1543,-5114,-22265
1287,-6394,-22009
1799,-6394,-22521
2055,-6394,-22521
2055,-6394,-22777
2311,-6650,-22009
2311,-6650,-21753
2311,-6650,-21241
2311,-6650,-21241
2055,-6906,-21497
1799,-6906,-22009
1799,-7162,-22009
2055,-7162,-21241
2823,-6906,-20985
2567,-6650,-20473
2567,-6394,-20473
2823,-6394,-20217
3591,-6650,-21241
4359,-5370,-27897
6663,518,23304
10759,10502,2056
17159,24326,-26104
23558,-25850,5128
25350,-7930,32008
22021,11782,-3319
12548,27910,-30711
-1020,-31995,19465
-13308,25349,21001
-18940,5381,-22263
-19452,-1787,-12024
-15356,28933,-15352
-11771,18181,16392
-6906,13317,-23544
-3322,8709,-2552
-3066,1285,15368
-2809,-5115,28935
-2553,-9467,-26617
-2553,-12795,-18937
-1785,-15355,-11769
-1273,-16123,-8697
-249,-16123,-7417
775,-14842,-5625
1031,-14074,-2809
1287,-13306,-1785
1287,-13562,-1529
1287,-13562,-761
1799,-13306,519
2056,-13306,1287
2056,-13562,1287
1800,-13562,1543
1800,-13818,1799
1544,-14074,4103
1544,-14330,5127
2312,-14074,5127
2312,-13818,5639
2824,-13306,8199
3080,-13050,9223
3336,-13306,8967
3592,-13050,9991
3336,-12282,11015
3336,-11514,12295
4104,-11514,12551
4360,-11258,12807
4104,-10234,13831
4104,-8954,14343
4360,-8698,14087
4360,-8698,12295
4360,-7674,11271
4360,-6394,11527
4104,-5882,9991
4104,-5370,8199
3848,-4346,6919
3848,-3322,5895
3848,-2810,3847
4104,-2554,1287
3592,-1530,-761
2567,-250,-1529
2311,262,-3064
2567,262,-6136
2311,6,-7672
2311,1286,-8952
1543,1542,-10232
1287,1542,-11512
1543,1542,-13304
1543,1798,-13560
1287,2054,-13560
775,2054,-14840
775,2310,-15608
775,1542,-15864
1287,1286,-15608
1543,1542,-15608
775,1286,-15864
519,1030,-15864
775,1030,-16120
775,1030,-16376
775,1286,-16376
519,1030,-16120
519,518,-16120
519,262,-16376
263,262,-15864
7,518,-15608
7,1030,-15608
775,1030,-15864
1799,1798,-15096
1799,2310,-14840
1799,3590,-12024
2055,4102,-10488
2567,4358,-8952
3335,5126,-8184
4103,6662,-7672
5127,8198,-7928
6407,9478,-10488
7175,11270,-14072
8455,13318,-16376
9479,14854,-18936
10759,15622,-20216
11527,15878,-21496
11271,15622,-21752
9991,13318,-21240
7431,9990,-21240
5127,7686,-20472
4103,5638,-19192
2311,3334,-18424
775,262,-17912
263,-2042,-17657
519,-2554,-17145
519,-2298,-16889
263,-3066,-16889
263,-3578,-16889
775,-3322,-16633
1287,-2810,-16889
1287,-2810,-17401
1031,-2810,-17401
1031,-2810,-17401
1287,-2554,-16889
1543,-2554,-16633
1287,-2554,-16377
1287,-2810,-15865
2055,-2554,-15865
2055,-2554,-15609
1543,-2810,-15865
2311,-2554,-19449
3847,1542,-29688
7431,9734,17928
12551,22022,-6648
17670,-29434,28168
20742,-12282,-7160
19973,6406,23305
9989,24582,-7927
-5372,-29947,-30199
-18940,-30971,28681
-25340,19205,-24311
-25340,-3835,4104
-22523,-26363,-23544
-21243,-32251,-12280
-10235,18693,-26616
-5370,14597,-4600
-4602,8197,13064
-4345,1797,27912
-3065,-3067,-26361
-2041,-6651,-19193
-1785,-9979,-12537
-1785,-11259,-7673
263,-11258,-5625
1543,-9978,-4601
1543,-9466,-2553
1543,-9466,-505
1543,-9210,7
1544,-9210,263
2056,-9210,1287
2056,-9210,2567
2056,-9978,2567
2824,-9978,2311
3080,-9978,3335
3336,-9978,4871
3592,-10234,5383
3336,-10234,5639
3080,-9978,6407
3592,-9978,8455
4360,-10746,8711
4104,-10746,8711
4104,-10234,9735
4616,-9210,11783
4360,-9210,12295
4872,-9210,12295
5384,-8954,12295
5384,-7930,13063
5128,-7930,13063
5640,-7930,12039
6152,-7418,11271
6152,-6138,10759
6152,-5626,10247
5896,-5370,8967
5896,-4858,7175
5896,-4090,6663
6152,-3066,5639
6152,-3066,4103
6152,-2554,1543
5128,-2298,-1017
4615,-1018,-2041
4615,-506,-3577
4615,-506,-5881
4615,6,-8184
4103,1030,-8952
3335,1030,-9208
3335,774,-11512
3591,774,-13560
3335,1286,-13304
2567,1286,-13560
2567,1542,-15096
2823,1542,-16120
2055,1286,-15864
1799,1030,-16120
1799,1286,-16632
1543,1286,-16888
1543,1030,-17144
1543,1030,-17144
1543,1030,-16888
1287,774,-17400
1287,1030,-17400
1287,262,-17656
1287,262,-17656
775,518,-17400
519,774,-17400
519,518,-17144
1543,1286,-17144
1799,2822,-16632
2055,3846,-15096
2055,3590,-14072
1799,3846,-13816
2567,5382,-11000
3591,6406,-9976
5127,7174,-9720
5895,8198,-10232
6919,11270,-11768
7943,13574,-15352
9991,14598,-18168
10759,15622,-20728
11271,16902,-21496
12039,17926,-22520
12039,17158,-23032
11271,15110,-22776
8967,12550,-22520
5639,11014,-22008
3847,8454,-20728
3079,5638,-20216
2055,3590,-20216
775,2310,-20216
519,1286,-19960
775,-506,-19961
775,-1530,-19705
1031,-1274,-19449
775,-1530,-19449
1287,-1274,-19961
1543,-1530,-20729
1543,-1274,-20729
1799,-1018,-19961
2311,-1018,-19705
2311,-1274,-19705
2567,-1274,-19449
2055,-1018,-19705
2311,-1018,-20217
2567,-1530,-19449
2567,-1786,-18681
3335,-2042,-21753
5127,1542,-30968
8711,9734,16904
13575,21254,-7416
18950,-29434,27400
21766,-13050,-7160
19717,5638,23561
9989,23814,-7671
-4860,-29691,-31223
-18428,-29947,28169
-25852,21253,-25847
-26364,-1531,1800
-23035,-24571,-27384
-17403,25861,7688
-11258,19461,-30200
-9210,17925,-23032
-5882,8453,9736
-5369,1541,25352
-3833,-3579,-29433
-2809,-7675,-21241
-2809,-11259,-14329
-3065,-12539,-9209
-1785,-12283,-7161
263,-11770,-5881
1287,-11258,-4089
1287,-10234,-2297
1287,-9210,-1785
1543,-8954,-1529
1799,-9466,-505
2055,-10490,519
2056,-10490,1031
2312,-11002,775
2568,-11258,775
2824,-11002,1543
2824,-11002,3591
2568,-11002,3847
2568,-10746,3847
3592,-10746,5127
4360,-11002,6407
4104,-11002,7175
4360,-10490,7175
5128,-10234,8711
5384,-10490,9479
5128,-10490,9991
5128,-9978,10247
5128,-8954,10759
5128,-8698,10759
5384,-8698,11015
4872,-8954,9735
4872,-8954,8967
4872,-7930,8199
4872,-7418,7175
5128,-6650,5639
5384,-5370,4359
4616,-4602,3335
4616,-4346,1543
4360,-4346,263
4360,-4346,-2553
4103,-3578,-5113
4359,-2042,-6905
4103,-1530,-8697
3079,-2042,-11001
2311,-2042,-11769
2567,-2298,-13049
2567,-1786,-14073
2567,-1274,-15353
2567,-1274,-17145
2567,-1018,-17913
2311,-1274,-18169
1799,-1530,-19705
1543,-1018,-19705
1287,-506,-19705
1543,-250,-19449
1543,-1274,-19961
775,-2042,-20473
263,-2810,-20729
263,-2810,-20729
519,-2810,-20473
519,-2810,-20217
263,-2810,-20217
775,-2554,-20473
1031,-2298,-20473
519,-2042,-20217
519,-2298,-20729
519,-2298,-20729
775,-1786,-19449
2055,-762,-18169
2567,6,-16888
2311,518,-15864
2055,774,-14584
2311,1030,-13560
4103,2822,-12792
4615,4870,-13048
5383,6918,-14840
6919,8454,-17656
7943,10246,-20472
9479,11782,-22776
9735,12550,-25848
9735,12550,-26872
10247,12806,-26616
9735,11014,-26360
7175,7942,-26616
4871,5638,-25848
3591,3846,-24312
2567,1542,-23032
2055,-1274,-23289
1287,-3578,-23289
1287,-4602,-23033
1031,-4858,-22777
1031,-5626,-22777
1031,-5882,-22521
775,-5882,-23033
1031,-5370,-23289
1799,-5114,-22777
2055,-5114,-22777
2311,-5114,-22521
1799,-4602,-22521
1287,-4346,-22777
1287,-4090,-22265
1287,-4346,-21497
1031,-5626,-20985
1287,-5882,-20985
1799,-5370,-21241
2823,-5114,-24313
3591,-2810,-32761
7431,3846,16136
12039,14854,-8184
18182,31238,25864
23302,-16634,-11000
23813,1286,17161
17669,19974,-15863
6148,-31738,24073
-7932,-31739,15369
-18172,19717,25353
-20732,-2555,-12280
-18428,-23803,24328
-15611,26629,-5112
-10747,18437,24584
-6138,13317,-17656
-4090,7685,2312
-3833,6149,7688
-3833,-4859,31239
-3833,-9723,-24569
-3321,-12539,-17657
-2809,-13563,-12537
-1529,-13819,-9977
-1017,-13819,-8697
-249,-12795,-5369
1031,-11514,-4345
1543,-11002,-3833
1287,-11002,-3321
1031,-11514,-2041
1287,-11770,-505
1543,-11770,-505
2055,-11770,-505
2311,-11514,7
1544,-11514,2055
1544,-11258,3079
2056,-11514,3079
2568,-11258,3335
3080,-11002,4871
3080,-11002,6919
3080,-10490,6919
3592,-9978,7175
4104,-9722,8967
3848,-9466,9991
3848,-8954,9991
3848,-8442,9735
4104,-8186,10247
4104,-7674,10759
3848,-6650,10759
4104,-5882,9479
4104,-5626,8455
4360,-5114,8711
4104,-4346,8455
4104,-3322,6151
4360,-2810,4359
4360,-1530,3847
4104,-506,2823
4360,262,8
4104,774,-2808
3335,1542,-3832
2823,1798,-5112
2823,2566,-7672
2567,2822,-9976
2567,3078,-11512
2567,3590,-12792
2055,4102,-14584
1543,4358,-16376
1031,4102,-17144
1287,4102,-17144
1287,4614,-17400
1031,4614,-18936
1543,4358,-18936
1799,3846,-18680
1287,3334,-18936
1031,3078,-19448
775,3334,-19704
519,3078,-20216
263,2566,-19960
263,2310,-19960
519,2310,-20216
1031,2566,-18936
1031,2822,-18424
775,2822,-18168
519,2566,-18168
775,2566,-19192
519,2566,-19192
775,3590,-19192
775,3846,-17656
1031,4358,-15608
2055,5382,-14584
2311,6406,-13816
3079,7174,-12280
3591,7686,-10744
4103,8198,-10488
6407,11526,-12536
7175,12806,-15352
7943,13318,-17912
8711,14854,-20728
9735,16390,-22520
9991,16902,-23544
9735,16646,-23288
9479,14854,-22520
8199,13062,-22008
5127,11014,-22008
3079,7942,-21496
2055,5126,-20728
1031,2566,-20728
263,774,-20984
-249,5,-20984
-249,-1275,-20217
775,-1274,-19705
1031,-1018,-19705
1031,-1786,-19961
1031,-2042,-20473
1031,-2042,-20217
1287,-1786,-19449
1287,-2042,-19449
1543,-2042,-19705
775,-2042,-19705
263,-2042,-19193
775,-2042,-18681
1543,-2042,-18937
1799,-2042,-18169
2055,-2042,-17145
2311,-2298,-18937
2567,-762,-25849
4359,5126,24328
8199,15110,2568
14087,29446,-26104
18438,-20218,5384
18694,-2554,-30712
12805,17414,1033
261,-32762,-25847
-14844,-29435,27145
-25852,25605,31497
-27900,4613,-9207
-25084,-18427,26632
-20731,28677,-2040
-15099,18693,28936
-9210,14597,-13560
-5882,9733,5640
-5625,2821,21768
-5369,-3067,-32505
-4089,-4347,-29945
-3833,-10235,-17657
-3833,-12539,-12025
-3833,-13563,-9209
-2041,-13307,-7417
-505,-12283,-5881
-505,-11259,-3065
-1017,-11515,-2041
-761,-11515,-2297
-505,-11259,-2041
7,-11002,-505
-249,-11003,263
-248,-11515,263
264,-11770,519
264,-11770,1031
264,-11770,2567
776,-12026,3591
1544,-12026,3591
1544,-11770,4615
1544,-11514,6151
1544,-11258,6663
2056,-11258,6919
2568,-11258,7687
2568,-11258,8711
2824,-10234,9223
3080,-9466,9479
3592,-9722,9735
3848,-9466,9735
3848,-8186,9735
3848,-7162,8711
3592,-7162,8455
3592,-7418,7687
3848,-6650,6151
3848,-5114,5127
3592,-5114,4359
3592,-4858,2823
3592,-3834,519
3848,-2810,-1273
3591,-2554,-3065
3335,-2554,-4857
3335,-1530,-7161
3335,-250,-8953
3335,262,-10232
2567,6,-12024
2311,6,-13816
2055,774,-15864
1799,1542,-16632
1287,1286,-17656
775,1286,-19192
519,1286,-20472
519,1286,-20472
7,1542,-20728
263,1286,-21752
519,1542,-22776
7,1286,-22520
-505,773,-22008
-505,-1275,-20985
-249,-1787,-20729
-505,-1275,-20473
-505,-1531,-20729
-761,-1787,-21241
-761,-2299,-21241
-505,-2299,-21241
-505,-2555,-20729
-1017,-2555,-19961
-1017,-2299,-19449
-761,-1275,-18425
-761,-507,-17913
-249,517,-16888
775,2054,-15608
1031,2566,-13816
1543,2822,-11768
2567,4102,-11000
3591,5382,-11000
4615,7174,-13048
4871,7686,-14584
6919,11014,-20472
8199,12550,-22520
8967,13062,-24056
9479,13574,-25080
9479,14342,-25336
9223,13574,-26104
7943,11782,-26360
4871,8454,-26104
2567,4614,-25080
1543,2822,-23800
519,1030,-23288
-1017,-1787,-23545
-2041,-3835,-22777
-1785,-3835,-22009
-1273,-4603,-21497
-761,-4603,-21241
-505,-5115,-21241
-505,-4859,-22009
-505,-4091,-22521
-761,-3835,-22521
-761,-3835,-22521
-505,-4603,-22265
-505,-5371,-21753
-505,-5371,-21753
-761,-5627,-22009
-505,-5883,-22009
-505,-5883,-21497
-249,-5627,-21753
1287,-5882,-23801
3079,-3322,-31737
5383,3334,18440
8967,13318,-4600
14854,27398,31240
19974,-22266,-3576
20229,-3578,24840
12805,16390,-9207
516,30214,30985
-12796,32261,20745
-23036,21253,28169
-26364,-251,-11256
-23804,-24059,24840
-18683,24325,-4856
-12539,15109,25608
-8186,11525,-16888
-6394,5125,2312
-5369,-2299,19207
-4089,-7675,32007
-3833,-12027,-24569
-3833,-15355,-17913
-3833,-16891,-15353
-2553,-17147,-9977
-1017,-16635,-8953
-761,-15611,-7417
-1273,-15611,-5625
-1273,-15867,-4089
-1273,-15867,-3833
-761,-15867,-3321
7,-16122,-2041
7,-16890,-1529
7,-16378,-1529
775,-15866,-1017
1031,-14842,7
1288,-15098,1287
1032,-16378,1543
776,-16890,2055
1032,-16634,3335
1544,-16378,4359
2056,-16634,4359
2824,-16634,5383
2568,-16634,6919
2568,-16122,8199
3336,-15354,8967
3080,-15098,8967
3080,-14842,8967
3080,-15098,9223
3336,-14586,9223
3080,-14330,8711
2824,-12794,7687
3080,-12026,6407
3592,-12282,5639
3848,-12026,5383
3592,-11514,4359
3080,-11002,2055
3080,-10234,775
3336,-8698,-2041
2823,-7674,-4345
2567,-6650,-6393
2055,-6650,-8441
1799,-7674,-9209
1799,-7674,-10745
1031,-7930,-13561
1031,-7418,-15097
1287,-6906,-15609
1287,-6394,-16633
1031,-5882,-17913
7,-5626,-18937
7,-6138,-19193
-505,-6651,-19449
-1017,-7163,-20217
-1017,-7163,-20217
-761,-7931,-20217
-1273,-8443,-19961
-2297,-8443,-20473
-2809,-8187,-20217
-2809,-8187,-20217
-2553,-8187,-20729
-2297,-7419,-20985
-1529,-7419,-20729
-1273,-7675,-20985
-1273,-7419,-20473
-1529,-7419,-20217
-1529,-7419,-20217
-1273,-6907,-20473
-1273,-5883,-19449
-1273,-5115,-17913
-761,-4347,-17401
-505,-4091,-16377
-505,-3323,-14585
-249,-2811,-13049
1287,-1786,-12025
2567,6,-12536
3079,2054,-14328
3847,3846,-17144
5639,6150,-20216
6663,6918,-20984
7943,9222,-23800
7943,9734,-24312
7943,9478,-24568
7431,7686,-24824
5639,5382,-23800
3335,3590,-22008
3847,3078,-20472
6151,3334,-19448
8967,2822,-18168
13319,5126,-15352
14599,6406,-13560
12295,4358,-14328
6919,-1018,-16633
-3833,-9467,-19961
-12537,-15611,-22777
-13305,-16635,-24057
-11001,-16123,-23801
-8953,-15099,-23289
-7161,-12795,-21497
-4857,-10235,-19961
-3065,-9211,-19705
-2553,-9467,-19449
-2809,-8955,-18681
-1017,-7675,-18169
263,-6906,-18425
1031,-6650,-18169
519,-6906,-20985
2055,-3578,-30457
5127,4614,17928
9735,16646,-6904
14598,31494,27912
18438,-18170,-7672
21253,3590,22281
18437,25606,-9207
5892,-27898,-31479
-7420,-28411,26633
-17916,19973,-27895
-20988,-4347,8
-17915,-25851,-28408
-11771,26373,8200
-6394,19205,-27896
-4346,12549,-6904
-6138,4357,9992
-10489,-5627,24583
-12025,-13051,-30201
-10233,-16123,-21497
-6649,-16635,-14073
-4345,-16635,-7929
-2809,-16123,-5113
-1785,-15355,-5113
-1273,-13819,-3065
-1529,-14075,-1017
-1529,-13819,263
-1272,-13563,519
-248,-13563,1543
520,-13562,3335
520,-13306,3847
264,-13306,3591
776,-13562,4103
1544,-13818,6151
1800,-13050,7687
2312,-12794,7431
3080,-12794,7687
3592,-12794,9223
3848,-13306,10247
3848,-13050,9991
3336,-13050,10759
3080,-13050,12039
3080,-13050,14087
3080,-13050,14343
3592,-13050,14087
5128,-10746,15111
5640,-9210,15879
5896,-9210,15111
6408,-9210,14599
6408,-9722,12551
5640,-9978,10759
4872,-10234,10247
4872,-9722,9991
4872,-8954,8967
4616,-6906,8967
3848,-5882,8199
3848,-5882,6407
4872,-5882,3847
4616,-5626,2055
2568,-5626,519
776,-5626,-1017
775,-6138,-2041
2567,-6138,-2809
3335,-5370,-3321
3335,-4090,-4601
2823,-4090,-6649
2823,-4090,-8441
2823,-4090,-10233
2823,-3322,-11257
1543,-3322,-12793
1287,-4090,-13561
775,-4602,-13561
1031,-4858,-13049
775,-4858,-12537
775,-4602,-12025
2055,-4602,-11257
2823,-4346,-10745
3079,-4346,-10745
3591,-4346,-10489
3847,-4346,-9977
3591,-4090,-9209
3591,-4346,-8953
2055,-4858,-9209
519,-5114,-9209
-505,-5371,-9209
-2041,-5627,-9465
-2809,-5883,-9465
-505,-4859,-8697
3335,-1530,-5881
6919,1542,-3576
7687,2310,-3832
6663,1286,-4856
5895,1286,-7160
6151,4102,-9208
7431,7430,-12280
9991,9990,-15352
11527,11270,-17400
11527,12550,-18680
11271,13574,-18936
11015,11526,-20216
10759,8710,-20472
8455,7174,-19960
4103,5126,-18680
-249,1285,-16888
-2553,-2811,-16377
-4857,-6139,-16121
-4857,-7675,-15609
-2297,-7675,-14841
7,-8186,-14585
775,-8186,-14585
775,-7418,-15353
519,-6650,-15865
263,-5882,-15865
519,-5626,-15865
519,-5370,-15609
775,-4858,-15353
1031,-3834,-15353
1799,-4090,-15609
3847,-4090,-16121
5383,-2810,-16121
5383,-2042,-14841
5639,-2298,-13305
7175,-1530,-13817
7687,-762,-14585
10247,5126,-28152
13319,13062,20488
17415,23814,-4088
21510,-27386,30216
23302,-9722,-3320
18949,9222,28169
8197,27910,-4087
-5628,-25595,-25335
-18428,-25595,-31479
-24316,22789,-16631
-24316,-1787,13832
-18939,-23803,-14328
-12283,28421,20744
-5114,23557,-16888
-250,20229,3848
1287,15110,20744
1287,9222,-31480
1543,4614,-20984
2567,-250,-13049
3591,-3834,-6137
5895,-4090,-1017
8711,-2298,1287
10760,6,2056
11272,518,2056
11272,262,2312
11016,774,2568
11016,774,2312
11272,2054,3848
10248,2054,5128
9736,1286,5640
9992,262,5384
9480,-1530,6663
9480,-2042,7943
9224,-1786,8199
9480,-1530,8967
9992,-1530,9991
10760,-1530,11015
12552,-506,11783
14088,1542,11784
14088,1030,12040
13064,6,12296
12296,-506,13319
12040,-250,14343
14600,2310,15112
15624,3078,15368
15112,2822,15368
13832,2822,14600
13832,3078,13320
14088,4870,12552
14856,5638,12552
14856,7686,12296
13064,7430,11272
10760,5894,8456
10248,5638,5384
11016,7174,5128
12808,9222,4104
12552,9734,1544
12552,9222,-1528
12039,9478,-2296
10247,9222,-3064
9991,9222,-5368
9991,9734,-7672
10247,10758,-8184
11015,11526,-8696
11015,12294,-9208
10503,12550,-10488
10503,12806,-10488
10247,13830,-10232
11527,13318,-10488
11271,12038,-13048
10247,11014,-14072
8455,10758,-14584
8455,11014,-14328
9479,11014,-14840
9991,10758,-15096
8711,9734,-14840
7687,8966,-14072
7175,7686,-14072
6919,7686,-14072
6919,7686,-14328
7175,7430,-14840
7175,7430,-15096
6919,7686,-15352
6663,7942,-15096
6919,8710,-13816
7175,9222,-11768
7687,9478,-9976
7943,9222,-8440
8199,9734,-7416
8455,10758,-7160
9991,12038,-7672
11527,13830,-10488
11783,15366,-14584
12807,16646,-16888
14087,17158,-17912
14599,17158,-19960
14599,17158,-22008
12551,15878,-22264
11271,12806,-22008
10759,12038,-22008
7687,8710,-21240
5383,6150,-20472
3079,1798,-19448
1543,-2042,-19449
1031,-4090,-19705
519,-5370,-19449
7,-7418,-18169
-249,-8187,-18425
7,-8186,-18425
-249,-8187,-18425
-505,-8955,-18681
-761,-10235,-18681
-505,-9979,-19193
-249,-9467,-19705
263,-9466,-19449
7,-10490,-19449
-761,-11259,-18937
-1785,-11771,-18681
-1785,-12283,-17145
-1529,-13307,-16633
-1785,-13819,-17145
-505,-13307,-20473
1543,-9978,-29945
4103,-2810,18439
4871,-506,12295
14343,21254,27912
18182,-27130,-8440
16133,-7674,20744
6149,12038,-10999
-8188,23813,-32759
-22012,22021,27913
-29180,6917,-24567
-29692,-17403,5128
-27131,25093,-24056
-22779,10501,9736
-16890,3333,-27896
-13050,-2299,-6137
-12282,-9467,12295
-11513,-16379,26887
-10489,-22011,-27385
-9721,-26363,-20217
-9721,-28923,-14841
-9721,-29179,-9977
-8953,-27899,-8697
-7673,-27387,-7673
-6905,-27643,-5369
-7417,-27387,-3833
-7929,-28155,-3321
-8185,-29179,-3321
-8441,-29435,-2553
-8185,-28667,-1273
-7929,-28411,-1017
-7417,-28411,-761
-7161,-28667,-249
-6905,-28411,1287
-6904,-28667,2311
-6648,-29179,2567
-6648,-29179,3591
-6904,-29179,4871
-6648,-28411,5383
-5368,-27899,5639
-4344,-27131,6407
-4088,-27387,7943
-5112,-27899,9223
-5112,-27899,9735
-4344,-26107,9735
-4088,-24827,9991
-4344,-24571,10247
-3576,-23803,9223
-3320,-23291,8199
-3064,-22523,8199
-3320,-22523,8199
-3064,-22779,7431
-3064,-21755,5639
-3064,-20475,5383
-3064,-19195,3591
-3064,-18939,2055
-3064,-18683,-761
-3833,-17659,-2809
-3577,-16379,-3833
-3577,-16379,-4857
-4089,-15355,-7417
-4345,-14331,-9977
-4345,-13819,-10489
-4601,-13563,-10745
-4345,-14075,-12793
-4089,-14843,-14841
-4601,-15099,-14585
-4345,-15099,-14585
-4857,-15099,-15865
-4857,-14843,-17401
-4601,-13563,-17401
-4857,-13051,-17145
-4857,-13819,-18681
-4857,-14587,-20217
-4601,-14843,-20729
-4601,-14587,-19961
-4601,-14843,-19961
-5369,-15611,-19705
-5625,-15867,-19705
-5625,-15611,-18937
-5625,-15867,-18681
-5625,-15867,-18681
-5113,-14843,-18937
-4601,-13563,-18425
-4345,-13819,-17401
-4089,-14075,-16121
-3833,-12283,-15097
-4089,-10491,-14073
-3577,-10747,-12025
-3065,-11003,-11001
-3065,-9723,-11001
-2041,-7675,-10489
-761,-5115,-11001
519,-3578,-13561
1799,-1274,-17145
2567,774,-19960
3847,1798,-20984
4871,2054,-21496
4871,2054,-22264
4615,1286,-22264
2567,-762,-21753
775,-3066,-19961
-1273,-6139,-19705
-1529,-6907,-20217
-2809,-10491,-19193
-4089,-12539,-18425
-4601,-13819,-17913
-4345,-14075,-18169
-4345,-13819,-18169
-4089,-13819,-18169
-3833,-14075,-17913
-3833,-14331,-18169
-3577,-14587,-18169
-4089,-14331,-17401
-4345,-14331,-17145
-4089,-14075,-17145
-3833,-14331,-17401
-4089,-14331,-17401
-4345,-13819,-16633
-4601,-13307,-16121
-4089,-13051,-16121
-3321,-13307,-15865
-2297,-12539,-18681
-1273,-8955,-26873
2055,-1530,22791
6407,9222,-1272
12038,24070,-31224
16390,-24058,8
17414,-18426,-11256
11013,14086,-3319
-508,27397,-28663
-14332,27397,27401
-24060,13573,-29431
-25852,-9467,-3320
-23804,-32763,-32248
-20219,16901,4104
-15354,10245,-31736
-9978,6149,-8952
-8186,5,9480
-7929,-6139,25351
-7417,-11003,-28153
-6393,-15355,-19705
-5369,-18427,-12793
-5369,-19451,-7929
-5113,-19707,-5113
-4345,-19195,-4089
-3065,-18427,-3065
-2809,-18427,-1273
-3065,-18427,7
-3320,-18427,7
-3576,-18427,519
-2808,-18427,1799
-2808,-18171,3079
-2552,-18427,3335
-2552,-18427,3079
-2808,-18427,3079
-2808,-18939,4103
-2552,-19195,5127
-1784,-19451,5383
-1784,-19195,6407
-2040,-19451,7943
-1784,-19451,8967
-1784,-19451,8967
-2040,-19195,9991
-1784,-19195,11271
-1016,-18427,11783
-1016,-18427,11783
-760,-18427,12295
-504,-18171,12551
-504,-17403,12807
-504,-16891,12039
-760,-17147,10503
-248,-16891,10247
8,-16122,9991
8,-15610,9223
-248,-15355,7431
-248,-14331,5895
8,-13562,4615
8,-13050,4359
-248,-12283,519
-248,-11771,-1017
-761,-11003,-2297
-1017,-10235,-3833
-1017,-9723,-5369
-761,-9467,-7161
-761,-9467,-7929
-1017,-8699,-8441
-1273,-8443,-10233
-1273,-8699,-12281
-1273,-8699,-12793
-1785,-8443,-12793
-2297,-8187,-13305
-2297,-8443,-13561
-2297,-8443,-13561
-2297,-8187,-13817
-2041,-8187,-13817
-1785,-8187,-13561
-1529,-8187,-14073
-1529,-7931,-14329
-1529,-8187,-14329
-2041,-8187,-14073
-2553,-8187,-14073
-2553,-7419,-14073
-2809,-7163,-13817
-2553,-7163,-14073
-2041,-6907,-14329
-1529,-6139,-14329
-1017,-5627,-14073
-1017,-4603,-12793
-1273,-4091,-11001
-761,-3067,-9465
-249,-2043,-8441
263,-762,-7417
1543,774,-6648
2823,2566,-8184
3591,4870,-10744
4871,6662,-14840
6151,7686,-17912
7943,8966,-19704
8967,10246,-20728
9223,9990,-21496
