8455,2310,-17400
8199,1798,-17400
7175,774,-17144
6919,6,-17400
7687,262,-16632
8199,6,-16120
8199,-250,-16377
7943,-250,-16889
7687,6,-16888
7431,6,-16632
7687,-250,-16633
7687,-250,-16633
7943,-250,-17145
7687,-250,-17657
7943,6,-17400
7943,-506,-16889
7175,-1018,-16633
6919,-1530,-16633
6919,-1274,-16889
7175,-1274,-16377
7687,-506,-16633
8455,-506,-16633
7943,-250,-16633
7943,-250,-16889
7687,-250,-17145
7687,6,-17144
7431,6,-16888
7687,-250,-16889
7687,-250,-17145
8199,518,-17144
8199,774,-16888
8199,774,-16632
7943,262,-17144
7943,6,-17144
7943,774,-16376
8711,2310,-13816
9735,5638,-12536
10503,9222,-14328
12039,13830,-18936
14599,18950,-26616
15367,27398,23304
15623,-27386,2056
17415,-12538,-24312
19974,7174,13321
23046,32262,-14071
26117,-4090,28937
27909,26886,11274
29701,-7674,1290
29957,15878,-1781
27396,20486,4363
23813,11270,18955
20997,-11770,-25590
18181,22534,-1014
13829,-7930,23561
9478,27142,-18679
6406,-4346,4616
6407,-32506,24072
6151,25094,28936
5639,-2298,-18169
5639,-9210,-12537
6151,-13818,-8697
6407,-17146,-7161
6407,-19706,-6137
6151,-22266,-3833
5895,-24570,-1273
5383,-27130,-505
4871,-28410,-249
4359,-28922,-249
4359,-29946,263
4616,-31482,519
4616,-31738,775
4872,-31738,1287
5128,-31994,1543
5640,-32762,2567
5896,31750,2567
5896,30470,2567
5896,29958,3847
6152,29446,4871
6920,28166,5127
7176,27398,5127
7176,27142,5895
7176,26630,6407
6920,25862,6663
7944,23814,6919
7944,23302,7431
8200,23046,8711
8200,21510,9735
8200,20230,9991
9224,19974,10759
9736,19206,11527
9992,17670,12807
9480,15878,12807
8968,14854,13319
9480,14086,14599
9992,12806,16135
10248,11270,17159
10248,9990,17671
9992,9478,18183
9992,8966,19463
9992,7942,19463
10248,7686,19463
10504,7686,19463
11016,7686,19207
11016,7942,18951
11528,8710,18695
11784,9990,18183
11784,12550,17671
11016,13318,16903
11016,16390,14087
11784,19718,13319
11784,23302,12807
11528,26886,10247
11784,29958,7687
11528,-31482,5383
12040,-26362,3847
12040,-21754,1543
11784,-18426,-1529
12039,-14586,-3577
12551,-10490,-4857
12807,-6906,-6137
12551,-4602,-8441
12807,-2554,-10489
13319,262,-10744
13575,3334,-11768
13575,4358,-13048
14087,4870,-14072
14343,6662,-14072
14343,8198,-14328
14599,8966,-15608
15111,9478,-16376
16135,10502,-16376
16391,12294,-16120
16135,12550,-16632
16903,13574,-17912
17927,15110,-17656
18695,17926,-17912
19207,21510,-19448
20231,26118,-22264
20231,32518,-24824
21255,-25338,-26616
21255,-16378,-28664
21511,-7162,-30712
21255,3590,-30967
19463,17158,-30455
14599,25350,-27383
7687,25350,-21239
7,16902,-11255
-9209,-5627,1800
-18168,27397,16904
-26104,-5883,32007
-31736,28677,-19193
30984,4101,-6649
29960,-11515,3590
30217,-22011,9734
32521,-30971,13318
-29687,29957,15366
-26359,30725,14854
-25591,31749,14086
-19703,-26363,11014
-17143,-19963,11014
-15607,-13051,11782
-14071,-4603,12550
-12023,6149,11271
-8951,17669,5639
-5367,28933,-5881
-2040,-26363,-21497
1032,-18426,26375
4616,-13818,10247
8968,-10746,-2809
11783,-7930,-11513
14599,-5370,-17145
16647,-3066,-20729
18695,-1018,-24313
19719,518,-26616
19719,1542,-26872
19975,2054,-27384
20743,1798,-28664
21255,1798,-29944
21255,2566,-30456
20999,2566,-30712
21511,2310,-31480
22279,2310,-32760
22279,2310,32520
22023,2566,32264
22279,2566,31496
22279,1286,30472
22279,1286,29704
22279,2566,29192
22535,3078,28168
22279,3334,26120
22535,3846,25096
22279,5382,24072
22279,7174,22792
22279,7430,21256
23559,7686,20488
24071,8966,19720
23815,10246,18440
23815,11270,17160
23559,11526,15112
23303,12294,14088
22279,13574,12808
20999,13574,11528
20743,13062,9736
20487,13318,8456
19719,14598,6664
19719,17670,5128
20743,21254,2056
21767,21766,1032
25607,29958,-1528
27142,-30970,-3064
28422,-28410,-4088
30470,-27642,-4344
30982,-26874,-3832
30726,-25850,-2296
29958,-25594,-1016
30214,-26618,264
29447,-27130,1288
28679,-26362,3592
28423,-25594,5896
27655,-25850,8712
27399,-27386,12040
26887,-28922,14344
26119,-30202,15624
25863,-31226,17160
26119,-32506,18184
26119,31238,18696
25351,29446,20232
23303,28422,22280
22279,26118,24840
22279,24070,27400
21511,22022,30216
20487,20486,32520
19719,19974,-32248
19207,18950,-28664
19207,18182,-27128
17927,17670,-25592
16647,16390,-24568
16391,15110,-23800
16647,13830,-22264
15111,12294,-21240
14087,11526,-20472
14087,10502,-20216
14599,9734,-19704
14599,9478,-19704
14343,9478,-19704
14343,9734,-19704
14599,9990,-19960
14599,9734,-19960
13831,8710,-20216
13831,8966,-20216
14087,9478,-19960
14855,9222,-19960
14855,9222,-19704
14599,8966,-19704
14599,8966,-19448
14855,8710,-19448
14855,8966,-20216
14855,9478,-20216
14855,9478,-19960
15111,9478,-19960
14855,8710,-20216
14599,8198,-19960
14343,7686,-19448
14087,7430,-19704
14343,7430,-19704
14343,6918,-19448
14343,6662,-19448
14087,5894,-19704
13831,5638,-19704
13319,4870,-18680
13063,4614,-17656
13063,4102,-17400
13063,4102,-17912
13063,3590,-18168
12807,2822,-17912
12295,2310,-17144
12295,2310,-16888
12039,1798,-16888
11783,1286,-16888
11783,1030,-16632
11783,1030,-16376
12039,1030,-16120
12295,774,-16120
11783,774,-16376
11015,518,-16376
11527,518,-16120
11783,262,-16120
11783,262,-16376
11527,518,-15608
11527,262,-15096
11527,6,-15096
12039,6,-15352
12039,6,-15352
12039,6,-15352
12551,774,-14584
12807,774,-14328
13063,1030,-14840
13319,1030,-15864
13319,1286,-15864
13063,1286,-15352
13063,1030,-14840
13319,1030,-14584
13575,774,-14840
13831,1030,-14840
14087,2054,-14584
14087,2310,-14584
13831,2566,-14840
13831,2566,-14328
14599,2566,-14072
14599,2822,-14840
14599,2822,-15864
14343,2566,-15864
14343,2566,-14840
14343,2822,-14584
14599,3078,-15096
15111,3334,-15352
15879,3846,-15352
16135,5894,-15608
16647,6662,-15608
17415,6406,-15352
18439,6662,-15352
18439,7174,-15608
18439,7686,-15864
18183,7174,-14840
17927,6918,-14840
17671,6406,-14584
17415,6150,-14840
17159,5638,-14584
17415,5382,-14328
17415,5126,-13816
17415,4870,-13560
16903,4870,-13816
16391,5126,-14072
16135,4614,-14328
16391,4102,-14328
16647,4870,-14072
16391,4870,-14328
16391,5126,-14840
16647,5126,-14840
16647,4358,-14584
16391,4614,-14840
16391,4614,-14840
16391,4358,-14840
16391,4614,-15096
16391,5126,-15096
16391,5126,-15352
17159,4870,-15352
16903,4870,-15096
16903,5126,-15096
16647,5126,-15352
16647,4870,-15096
16647,4870,-15096
16135,4870,-15096
16135,4614,-15352
15879,4870,-15352
16135,5382,-15608
15367,5382,-15864
14599,4870,-16120
14855,4870,-16376
15367,4870,-16120
16391,5894,-15608
16647,6662,-15608
16135,6150,-15864
15879,6150,-15864
16135,6150,-15608
15879,6662,-16120
16135,6918,-16120
16135,6662,-16376
16391,6918,-16376
16391,6918,-16120
16647,6662,-16376
16135,6150,-16376
15879,5894,-16120
15879,5894,-16376
15879,5638,-16376
15111,5638,-16120
14855,5894,-16376
14599,5126,-16120
14599,4358,-15608
14855,4614,-15608
14599,4614,-15864
14599,4358,-15864
14599,3590,-15608
13831,3078,-15608
13319,3078,-15864
13063,2822,-15864
12807,1030,-15352
11271,-506,-15097
10759,-1018,-15097
9735,-2042,-15097
8967,-3578,-14073
8199,-4602,-14329
7175,-5370,-14841
6919,-5114,-14841
6663,-6906,-14585
5639,-8186,-14329
4359,-8698,-14329
4103,-8954,-14329
4103,-9466,-14585
3847,-9978,-14841
3335,-9978,-14841
3335,-9210,-15097
3847,-8186,-15097
4359,-8186,-15353
4359,-8698,-15353
4359,-8442,-15609
4359,-8442,-15097
4103,-8698,-14841
3847,-8954,-14841
3591,-8698,-15097
4103,-8698,-15097
4103,-8442,-15097
3847,-8698,-15353
3847,-9466,-15097
3847,-9466,-15097
3335,-9722,-15353
2823,-9722,-15353
2823,-9978,-15097
2823,-9722,-15353
2567,-9978,-15865
2311,-10746,-15865
2567,-11258,-15609
2823,-10746,-15609
2567,-10490,-15865
2823,-9978,-15865
3079,-10234,-15609
2823,-10234,-15609
2567,-9978,-15865
2823,-9978,-15865
3079,-9722,-15609
2311,-9722,-15609
1799,-9722,-16377
1799,-10490,-16377
1543,-10746,-16121
1799,-10490,-16121
2055,-10234,-15865
2055,-9978,-15865
2311,-9722,-16121
2567,-9978,-16377
2567,-9978,-16889
2311,-9722,-16889
2055,-9722,-17145
2311,-9978,-16633
2567,-9978,-16377
2567,-9722,-16377
2567,-9210,-16377
2567,-8954,-16633
3079,-8954,-16633
3335,-8442,-16377
3591,-7418,-16377
3591,-6138,-16889
3847,-5114,-16633
3847,-4858,-15097
3847,-3834,-14329
3847,-2810,-14073
3335,-3066,-14073
3079,-3066,-15353
3591,-3066,-16377
4871,-2554,-19449
4871,-1786,-19705
4359,-1786,-20729
4359,-1530,-20985
4103,-2554,-20985
4359,-3322,-20473
4359,-4346,-19705
4359,-4602,-18425
4103,-4602,-18425
3847,-4858,-18937
3591,-4858,-18937
3591,-5114,-18681
3847,-5626,-18681
3335,-6138,-18425
2055,-7674,-18169
1031,-8954,-17657
1031,-9466,-17401
1031,-9722,-17657
1287,-10746,-17657
1287,-11258,-17401
1543,-11514,-17401
1287,-11002,-17657
2055,-10746,-17657
2567,-10746,-17657
2311,-11002,-17913
2055,-11002,-18169
2055,-10746,-18169
1799,-10746,-18169
2311,-9978,-18425
3335,-9722,-18937
3335,-9466,-18681
3335,-9466,-18937
3591,-9466,-18937
4103,-8698,-18681
4359,-8186,-18681
4103,-7418,-18681
4871,-7162,-19449
5383,-6138,-19449
6151,-5370,-19193
6151,-4858,-19449
6151,-4858,-19193
6151,-4602,-19193
6407,-4602,-19705
6919,-4346,-19449
6663,-4090,-18681
6919,-3578,-18169
7687,-1530,-16889
8455,1542,-16376
9223,5382,-18424
9479,6918,-19960
11271,14854,30984
11783,22534,14088
11783,-30970,-9208
13574,-14842,28936
15878,6662,-1783
18693,-31482,-29943
21765,262,14090
24069,-32250,-758
24836,-3066,-8950
24324,13318,-7413
23044,15622,4107
20229,2054,22283
18181,-24570,-21750
15877,10246,522
12038,-19962,23817
7686,13574,-17399
5638,-16634,4360
5127,21510,23048
5383,1030,-28664
5639,-10490,-19193
5639,-15610,-14329
6151,-19962,-13049
6663,-23290,-11001
6663,-25338,-7929
6151,-25850,-6905
5639,-29690,-5113
6151,-31738,-4601
6407,-32250,-3065
6407,32006,-2041
6151,30726,-2297
5383,29190,-1529
5127,28166,7
4872,27654,263
4872,27142,519
5128,26374,519
5128,25606,519
5640,25350,1287
5896,24326,1799
5896,23302,2055
5896,22790,2823
5640,22278,3079
5384,21510,3335
5896,19974,4103
5896,18694,4615
5896,18438,4871
5640,17926,5895
5384,16390,6407
5128,15110,6407
4872,14854,6663
4872,14598,7175
4872,12806,8711
5128,11526,8967
5128,11014,9479
4872,9990,10503
4616,8966,11271
3848,7430,11271
3592,6662,11527
3592,6150,12551
3848,5382,12807
4104,4102,12807
3848,3334,13063
3848,3334,14087
3848,2822,14599
3848,1542,14343
3592,1798,14343
3848,1798,14343
4104,2054,14599
4872,2310,14343
4872,2566,13063
4616,3846,12551
4360,4614,12551
4104,5638,12295
5128,7174,10247
5384,9222,9223
5128,9990,8967
5640,13574,7431
6152,16390,6151
6664,19206,3335
6920,22022,1543
6920,24838,519
7432,27910,-761
7431,31750,-3577
7687,-30458,-5881
7943,-27386,-6393
8455,-24314,-7929
8199,-20986,-10233
8967,-17914,-12281
9479,-15610,-12793
9735,-13562,-13049
9479,-10746,-15097
9223,-8698,-16889
9479,-7162,-17401
9223,-5370,-17657
9479,-4090,-18681
9223,-2554,-19705
9735,-2042,-20985
10247,-762,-20729
9991,518,-21240
9735,1286,-22008
9735,1542,-22264
9735,1798,-22264
9735,2310,-22264
9223,2822,-22520
9223,3334,-23032
9223,3590,-23288
9223,3590,-23800
9479,3846,-24568
9223,3846,-25080
9479,4102,-24824
9479,4358,-25080
9479,4358,-25080
9479,4614,-24312
9479,4358,-24312
9735,4870,-24568
8967,4614,-24568
8967,4614,-23800
8967,4614,-23288
9223,5382,-23544
8967,5382,-23544
8455,5126,-23288
8455,5126,-22776
8455,5382,-22264
8711,5382,-22008
8967,4870,-21752
8711,4614,-21752
7687,4870,-20984
7943,4870,-20728
8199,4102,-20216
7943,4102,-19960
7943,4358,-19960
7175,4358,-19704
7431,3846,-19704
7687,4102,-19704
7943,4358,-19704
7431,4102,-19448
7431,4102,-19192
7175,3846,-19704
6919,4102,-20472
7943,3846,-20216
8199,3590,-20216
7687,4102,-19704
7431,4358,-19704
7431,4358,-19960
7943,4102,-19960
7687,4358,-20472
7687,4102,-20216
7687,4358,-20472
7943,4614,-20472
7943,4614,-20728
7687,4102,-20728
6919,3590,-20472
6919,3590,-20472
7175,3334,-20984
7687,3334,-21240
7687,3590,-21240
7431,3590,-20984
7687,3334,-20984
7943,3078,-21752
7687,3078,-22008
7687,3334,-21496
7431,3334,-21752
7687,2566,-21752
7687,2566,-21752
7687,3078,-22008
8199,2822,-22264
8455,2822,-21752
8199,3078,-20984
8455,2822,-21240
8455,2822,-21496
8199,2822,-21752
8199,2822,-21752
8199,2566,-21496
8455,2566,-21496
8455,2310,-22264
8199,2566,-22264
8199,2566,-22008
8199,2566,-22008
8199,2566,-21752
8967,3078,-22008
9991,3846,-22008
9991,5382,-22008
9479,6918,-22264
9223,7430,-21240
9223,7942,-19704
9223,8710,-19192
9479,8454,-19960
9479,8454,-20472
9735,8710,-22008
10759,9478,-23544
10503,9734,-24824
9991,9990,-25336
10247,9990,-25080
9991,9478,-25336
9991,8710,-25080
9991,8198,-25080
10503,7430,-23800
10247,6918,-22520
10247,6918,-22520
9479,6918,-23288
9223,6662,-24312
9479,6150,-23800
9223,4358,-22520
7943,3590,-21496
6919,3078,-21752
6663,1798,-21240
6407,774,-20728
6407,262,-20472
6663,262,-20472
7175,6,-21240
6919,-506,-21241
6919,-506,-20729
6919,-250,-20985
6919,-250,-20985
7175,-1018,-21241
7175,-1018,-21241
7431,-762,-20985
7431,-762,-21241
7431,-1018,-20985
7175,-1018,-21241
7175,-1018,-20985
7431,-1018,-20985
7687,-1018,-20985
7687,-250,-20729
7687,-762,-20729
6919,-762,-20473
6919,-1018,-20985
7175,-1274,-21241
7687,-762,-21753
7431,6,-22008
7687,6,-21496
7943,262,-21752
7943,6,-21752
7687,6,-21496
7687,6,-21496
7943,6,-21240
8455,262,-21240
8455,1286,-20984
8455,1286,-20216
8455,1798,-18936
8711,4102,-17912
9479,7174,-17656
11271,11526,-20728
13063,15878,-28152
14855,22790,23304
16135,-31994,3336
17415,-17914,-22264
19462,262,14601
22278,23302,-13815
25349,-13050,27401
26117,-3322,20489
28933,-14586,-5110
29444,12550,-11253
28420,24582,-7925
25604,20742,4107
22021,2310,23819
18949,-27130,-18166
15365,7942,7434
10502,-22778,32009
6406,9478,-9719
5126,-21498,11784
5383,19206,28936
5895,2822,-24824
6407,-6138,-17913
6663,-11514,-14841
6663,-15354,-12537
6663,-17146,-10745
6663,-19194,-8953
6663,-22010,-7161
6663,-24314,-6649
5895,-24826,-5625
5895,-25338,-4857
6151,-27386,-3833
5895,-29690,-3065
5383,-29946,-3065
5127,-30202,-2809
5383,-31738,-1529
5383,32518,-1273
4615,31750,-1273
4615,30726,-249
4615,30214,263
4616,29190,775
5128,27910,1031
5384,27142,1799
5640,26630,2311
5384,25606,2823
5128,24582,2823
5128,23302,3335
5640,22278,4615
5384,21254,5383
5128,20230,6151
5640,18438,6407
6152,17926,6919
6152,16646,7943
6152,14854,8711
5896,13830,9735
5640,13062,10503
6152,11526,11527
6152,9990,12295
5896,8966,12551
5640,8710,12807
6408,7174,14087
6664,6150,14599
6408,5382,14855
6408,5126,15111
6408,5126,15111
6408,5126,15367
6152,5382,15879
6408,6150,15623
6408,6918,14855
6664,8454,13831
6664,10502,13319
7176,12294,11783
7176,14598,10247
7432,17670,8711
7176,21254,7431
7944,24582,6151
7688,28166,3591
8200,32262,1031
8456,-28922,-1017
8455,-24826,-2553
8967,-20730,-4601
9479,-16634,-6905
9479,-13306,-8953
9479,-10490,-10489
9735,-9466,-11257
9991,-4602,-13561
9991,-2042,-15097
9735,6,-15608
9991,1542,-16376
10759,3078,-17400
10759,4614,-18168
10503,5894,-18680
10503,6662,-18936
10503,7686,-19448
11271,8454,-19704
12039,9222,-20216
12551,9990,-20472
12807,11014,-20984
13831,12294,-21752
14599,13574,-22520
14599,13830,-22520
14855,14342,-22776
14855,14086,-22776
15111,14086,-22520
14855,14342,-22520
14855,14086,-22520
15111,12806,-23032
14087,12038,-22776
13575,12038,-22776
13831,12038,-22520
13575,12038,-22520
13319,11782,-22776
12807,10502,-22776
12551,9734,-22008
12551,9478,-21496
12039,9990,-21496
11271,9478,-21752
10503,8710,-21496
10759,7686,-20472
11015,7686,-20472
10759,7942,-20728
10247,7174,-20728
10247,6150,-20472
10247,5382,-20472
9735,5382,-19704
8967,4870,-19448
8711,4614,-19192
9223,4102,-19192
9479,4102,-18936
9479,3590,-18168
9479,3334,-18168
9479,3078,-18168
8967,3078,-17400
8455,3078,-17656
8199,2822,-17656
8199,3078,-17656
8967,3334,-17912
8711,3334,-17912
8455,3334,-17656
8455,3078,-17144
8967,3334,-17400
8455,3334,-17656
8455,2822,-18168
7687,2310,-18424
7175,2310,-17912
7687,2310,-17656
7943,2054,-18168
7431,2054,-18936
6919,2054,-18680
6407,2054,-18680
6663,2054,-18424
6407,1798,-18168
5895,1542,-18168
6151,1542,-18168
6151,1542,-18680
6151,1542,-18936
6151,1030,-18680
5895,262,-18680
5639,262,-18680
4871,262,-18936
4615,-250,-18681
4359,-1018,-18681
4103,-1018,-18937
4359,-1786,-18681
4103,-2042,-18169
3079,-3066,-17913
2311,-3578,-17913
2311,-3578,-17657
2567,-3322,-18425
3079,-1786,-18937
3335,-1530,-19193
3847,-1274,-19193
4103,-1274,-19193
4103,-1530,-18937
4103,-1274,-18425
4615,-250,-18681
5383,1286,-18680
5895,2822,-19448
5639,3846,-19448
5895,4614,-18424
6151,6662,-16120
5895,7174,-15608
5895,7430,-16888
6663,7174,-17656
7175,7686,-17656
7687,9222,-19960
8711,10246,-20984
9223,10502,-21752
9479,10502,-22264
9223,10246,-22520
9223,9478,-22776
9479,9222,-21752
9479,8454,-19704
9479,7942,-19448
9223,7942,-19704
9479,7942,-19704
9991,8198,-19448
10247,8198,-19448
9735,7174,-19448
8711,5894,-19704
7687,5126,-18936
7943,4614,-17656
7943,4358,-17400
7943,4102,-18424
8199,3590,-18424
8455,3334,-18424
8711,3078,-17144
8711,3078,-17144
8711,2566,-17400
8967,2310,-17400
9223,2566,-17144
9479,3078,-17400
9735,3334,-17400
9991,3334,-16632
10247,3590,-16632
10503,3334,-16632
11015,4614,-17400
11271,4870,-17400
11271,4870,-17144
11527,4614,-17144
11783,4614,-17656
12039,4870,-17912
12295,5638,-17400
12039,5638,-17400
12039,5382,-17144
12039,5382,-17144
11783,5638,-17400
12039,5382,-16888
12295,5638,-16632
11783,5382,-17144
11527,5126,-17400
11527,5126,-17400
11527,4870,-16376
11271,4614,-15096
10759,4614,-15096
10759,7942,-13560
12551,11782,-13048
14599,15622,-16120
15367,20486,-23800
16391,28422,27400
17159,-26106,6664
19207,-12794,-17656
20742,5894,19721
22534,29446,-9207
26117,-7162,-32247
28933,23558,15370
29957,-11770,4106
29701,12294,-757
28164,21510,3339
26117,13574,18443
23045,-7418,-26870
19973,27654,-3574
15877,-2554,19977
12038,32518,-20471
9222,518,3849
7687,-27898,23304
7431,16134,-28664
7431,1542,-18680
7687,-5626,-12025
8455,-7674,-10745
8711,-13050,-8441
8455,-15354,-7161
8711,-17146,-3833
9223,-19706,-2297
8967,-21242,-2297
8199,-22522,-2041
7943,-24058,-1273
7431,-25850,-249
7431,-26362,7
7432,-27386,519
7176,-27898,519
7176,-29690,1543
6920,-30714,2311
6920,-31482,2567
7688,-31994,2823
7688,31750,3847
7432,30726,3847
7432,29958,4103
7944,29446,4615
8456,28166,5639
8200,26630,6407
8200,25606,6407
8456,24838,6919
7944,23558,8199
7432,22790,8711
7432,21254,9479
7944,20742,10247
7944,19206,11271
8200,16902,11527
8200,16134,12039
7944,15366,12295
7944,13830,13319
7944,11782,14343
7944,10502,14599
7688,9734,15367
7688,8710,16135
7432,7174,17159
7432,5382,17415
6920,4870,17927
6408,3846,18439
5896,2822,18695
5896,2566,19207
6408,2822,18695
6408,3846,17927
6664,4614,16903
6664,6406,16647
6408,8454,15879
6664,10502,14599
7944,12550,13319
8200,13830,13063
7944,19974,9479
7944,24582,7431
9480,28422,5383
10248,32262,3079
10248,-27642,1543
9992,-23034,-249
11271,-19450,-2809
11783,-16122,-5369
11527,-12026,-6649
11783,-8698,-8185
11783,-6394,-9465
11527,-4346,-10745
11783,-2298,-12025
11783,262,-12792
12039,1030,-13304
11783,2054,-13816
11783,3334,-14328
11783,5126,-14840
12295,5894,-15608
12295,6150,-16376
12039,6662,-16376
12039,7430,-16632
12295,7686,-16888
12551,7430,-17144
12551,7430,-16888
12295,7430,-17144
12295,7430,-17400
12295,8198,-17656
12551,8454,-17656
13319,8454,-17912
13063,8454,-17912
13063,8198,-18168
13319,8454,-18424
13319,8198,-18168
13063,7686,-18424
12807,7686,-18680
12807,7942,-19192
12807,7686,-18936
12295,7174,-19192
11783,6150,-18936
11527,5894,-18680
11783,6150,-18168
12295,5894,-17912
12039,5894,-17912
12295,5894,-17912
12039,5638,-17656
12039,5638,-17144
11783,5126,-17400
11783,4870,-17144
12039,4870,-17144
12039,4358,-16632
11271,3846,-16120
11271,3846,-15864
11271,3334,-15864
11271,2822,-15096
10503,2566,-15096
10247,2054,-14840
9991,1798,-14840
9991,1798,-15096
9735,1542,-14840
9735,1286,-14584
9991,1542,-14072
9991,1286,-14072
9735,1030,-14840
10247,2054,-15352
10759,2310,-15608
10759,2310,-15096
10503,2566,-15096
10759,2822,-15352
11271,3334,-15608
12295,4358,-16120
12551,5126,-15864
12295,5894,-15864
12295,6150,-16120
12551,6150,-16120
13831,6918,-15864
13831,7174,-15864
14087,6918,-16120
13575,6918,-15608
13319,6406,-15608
13063,5894,-15352
13319,6150,-15352
13319,6150,-15864
13575,6406,-15864
13063,6406,-15864
13319,6406,-15864
13319,6150,-15608
13319,5638,-15608
13063,5126,-15864
13063,5126,-16120
13319,4870,-16120
13063,4102,-16120
12807,4102,-15864
12807,3846,-15864
12807,3846,-15352
12807,4102,-15096
12807,3846,-14840
13063,3846,-14584
13063,3846,-15096
12807,4102,-15352
12807,4102,-15096
13063,4614,-14840
13319,5638,-15352
13575,6406,-15608
13831,7174,-14584
13063,7942,-14072
12039,7942,-13048
12039,7942,-13304
12807,8710,-14072
13063,8966,-14584
13319,9222,-16888
13063,9990,-18936
13831,10246,-19448
14343,10246,-19704
14343,9222,-19960
13063,8454,-19704
12551,8198,-18680
12551,7174,-17912
12551,6150,-17400
12807,6150,-17144
12551,6918,-17144
12551,7174,-17400
12295,6406,-17400
11271,4358,-16888
10759,3590,-16632
10759,3078,-15864
10503,2310,-15608
9735,1286,-15608
9479,6,-15096
9479,6,-14328
9479,-250,-14329
9479,-250,-14073
9479,-250,-14841
9735,-250,-14841
9479,6,-14840
9479,262,-14840
9991,262,-15608
10503,-250,-15865
10247,-1018,-15353
9735,-1018,-15097
9991,-1274,-15097
9991,-1274,-14841
9991,-506,-15097
10247,262,-15608
10247,262,-15352
9991,-1018,-15865
9735,-1530,-16121
9735,-1274,-15609
9991,-506,-15097
10247,-506,-14841
11015,6,-15096
11015,518,-15096
11015,774,-14840
10759,262,-15352
10759,6,-15608
10759,262,-15608
10503,518,-15864
10247,1286,-16120
10759,1286,-15864
11271,2310,-14328
11527,4358,-12792
12039,7686,-12792
13319,11782,-15352
14855,17158,-21240
16391,25862,32520
16647,-28666,13576
17159,-13306,-11512
19206,5382,27145
21510,28678,777
24070,-8186,-23287
26373,22534,22794
27909,-12282,9226
28165,13574,4107
26373,23814,7435
25861,24582,9227
21509,-1786,-27894
17925,32518,-4342
14085,-762,20489
10502,32518,-20983
7942,6,1289
7175,-27898,21768
7687,15622,-28408
8711,518,-19192
9479,-7418,-13817
10247,-11770,-9721
9991,-14842,-7417
10247,-17146,-6393
10503,-18682,-4601
10247,-20730,-3065
10247,-23034,-1785
9991,-24314,-1273
9991,-25082,-1273
10247,-26362,7
10504,-28154,1031
10760,-29178,1031
10760,-30202,1031
10504,-31226,1799
10504,-31482,2311
10504,-32250,2567
10760,-32506,2567
11016,31750,3591
11272,30470,4103
11528,29190,4615
11272,28166,5127
11016,27142,5127
11016,26374,5639
11272,25350,5895
11272,24070,6663
11016,23046,7687
11272,22534,7687
11528,21510,7943
11528,20486,7943
11784,19462,8711
11784,18182,9735
11784,15878,10759
12040,14086,11527
12040,12806,12039
11784,11526,12807
11528,10246,13575
11784,8966,14599
12040,8198,15367
12040,6662,16391
11272,4870,17159
11016,3846,17671
10760,3590,17927
11784,3334,18183
12296,3590,18183
12552,4102,18183
12296,4614,17671
12040,5638,17415
11784,6406,16903
11784,7942,15111
12040,10246,13575
12040,12806,13319
12040,15878,12295
12296,18950,9735
12808,23046,6919
12808,27654,5383
12552,31494,4103
12808,-29946,1287
13320,-25338,-761
13575,-20986,-2553
13575,-16890,-4345
13575,-14074,-6137
13575,-10746,-7929
13575,-7930,-9465
13575,-5370,-10489
12551,-4090,-11513
12551,-2810,-13305
12807,-1530,-13561
12807,1286,-13816
12551,2054,-14072
12551,2310,-14840
12807,3846,-15864
12807,4358,-16120
12039,4358,-16120
11783,4102,-15864
11783,4102,-16888
11783,3846,-17144
11783,4358,-17400
12039,4614,-17400
12039,5126,-17144
11527,4870,-17656
11271,4870,-18424
11527,5126,-18424
11527,5126,-18168
11271,4870,-18168
11015,4870,-18936
10759,5126,-18936
11271,5382,-18680
11783,5126,-18680
11783,5126,-19192
11527,4870,-18936
11015,5126,-18936
10759,5126,-18680
11271,4870,-18424
11527,4870,-18424
11527,5126,-18168
11271,5126,-18424
11015,4358,-18424
10759,4102,-18168
10759,4102,-18168
10503,4358,-18168
10503,3846,-18424
10503,3334,-17912
10247,2822,-16888
10247,2822,-16632
10503,2310,-16376
9991,1542,-16376
9735,1286,-15864
9479,1030,-15608
9479,1286,-15352
9735,774,-15096
9991,518,-15096
10247,774,-15352
10247,774,-15352
9991,774,-15352
9223,774,-15096
9223,-250,-15097
9223,-250,-14841
8967,6,-14840
8967,6,-15096
8711,6,-15608
8455,6,-15608
8967,262,-15608
8967,262,-15608
8455,6,-15352
8199,262,-15864
8199,518,-16376
8455,6,-16120
8455,-250,-15865
8199,-250,-15865
8199,-250,-16633
7943,6,-16632
7943,6,-16376
8199,262,-16376
8199,6,-16120
8455,-506,-16633
8711,-762,-16889
8455,-762,-16889
8711,-506,-16121
8455,-762,-16377
7943,-762,-16889
8199,-1018,-16889
8199,-1530,-16889
8455,-1530,-16121
8711,-1530,-16121
8967,-1274,-16377
8711,-1018,-16889
8455,-1018,-16633
8199,-1530,-16889
8199,-1274,-16889
8199,-1274,-16377
8455,-1274,-16121
9479,6,-16120
9991,1286,-16376
9991,2054,-16376
9735,2566,-16632
9223,3590,-15608
8967,4358,-14328
8967,4614,-13816
8455,4358,-13816
8199,4614,-15352
9223,4614,-16632
9991,5638,-18168
10503,6662,-19192
9735,6662,-20216
9735,6406,-20728
9991,5638,-20728
9735,5382,-20728
9479,4102,-19192
9479,3334,-18424
9223,2822,-18424
9223,2822,-18168
8967,3078,-18168
8711,3078,-18680
7943,1542,-18424
6919,774,-18424
6919,518,-18424
6919,-1018,-18169
6407,-2042,-17145
5639,-2810,-16889
5895,-3066,-16889
6151,-3322,-17145
6663,-3578,-17401
6663,-4090,-17401
6407,-3834,-17657
6919,-3834,-17657
6919,-4346,-17401
6919,-4090,-16889
7175,-4090,-17145
7175,-4090,-17401
7175,-4090,-17913
7175,-4346,-17913
6919,-4090,-17657
6663,-4090,-17657
6919,-4090,-17913
7175,-4346,-17913
7175,-4346,-17913
7431,-4346,-17657
7431,-4346,-17657
7175,-4090,-17913
7175,-3834,-17913
7687,-3578,-17657
8199,-3066,-17657
8199,-3066,-18169
7687,-2810,-18425
7431,-2810,-18169
7431,-3066,-18169
7175,-3066,-18169
7175,-3066,-18425
7687,-3322,-18425
7943,-2554,-16377
8199,-506,-14841
8711,2054,-14840
9991,5638,-16376
11783,10758,-20472
12807,16390,-30712
13319,25350,17160
14087,28422,11016
16903,-10490,-32248
19206,11526,4617
21510,-27898,-23287
24581,2566,20234
26885,-30202,4362
27653,1542,-5109
27140,23814,-8437
25092,27398,-1013
22788,17926,14091
19205,-5882,-29174
15109,27654,-5110
11781,-4858,19721
8198,27910,-21495
6150,-5114,2824
5127,31238,22536
5127,7686,-28664
5127,-5626,-19705
5383,-12282,-13305
6407,-16122,-10745
6663,-20474,-9977
6407,-22778,-8697
6151,-23802,-6137
5895,-25850,-4601
6151,-27898,-4857
6151,-28410,-4857
6151,-30202,-3321
5895,-30970,-2297
5895,-32762,-2297
5639,31238,-1529
5639,31238,7
5384,30470,775
5384,28678,1031
5640,26886,1031
5640,27142,1543
5896,26886,2823
6152,25094,2823
6152,23302,3079
6152,23302,3847
5896,22534,4359
5384,20998,5127
5128,19206,5639
5128,18694,6151
5640,18950,6919
5896,16902,7687
5640,15110,8711
5640,13830,9479
5896,13062,10503
5896,12038,11271
5640,9478,11783
5640,8966,11783
5384,7430,13319
5640,6662,14855
5896,4358,15623
5896,2822,16135
5896,2822,16903
5640,2054,17927
5640,262,18695
5384,-1018,18950
5128,-1018,18950
5384,6,18439
5640,262,18183
6152,6,18183
5896,1286,18183
5896,2822,16903
5896,4358,15367
5896,6406,15111
5896,8454,14343
6152,12038,13063
6152,15366,9735
5896,18694,7943
6408,22534,6919
6664,26886,4103
6664,30982,1543
6664,-30458,-1273
7175,-29178,-1017
7943,-22010,-4345
7687,-18170,-7417
7431,-15354,-9209
7175,-12794,-10233
7175,-9978,-11257
7943,-7674,-12793
7943,-5626,-14329
7687,-4858,-14585
7687,-2810,-14841
7943,-1274,-16121
7431,-762,-17657
6919,-506,-17913
6919,262,-17656
7175,1286,-18680
6919,1286,-19448
6919,1286,-19448
7175,1286,-19192
7431,2054,-18936
7431,2566,-19448
7687,2822,-19704
7943,3078,-20216
7943,2822,-20216
7943,2822,-20984
7687,3078,-20984
7687,3078,-21240
7687,3334,-21496
8199,3846,-21496
8455,4102,-21496
8455,4102,-21240
8199,3846,-21240
7687,3846,-22008
7687,3590,-22008
7687,3078,-21752
7431,2822,-21752
7431,2822,-22008
7943,2822,-22008
7687,3078,-22008
7431,3078,-21496
7431,2822,-21240
7687,2310,-20728
7175,2054,-20472
6919,2054,-20216
7175,1798,-20216
7687,1542,-19960
7687,1030,-19960
7431,262,-19704
6663,518,-19192
6919,262,-18680
6919,6,-18680
6663,6,-18424
6663,-762,-17913
6919,-762,-18169
6919,-1018,-17657
6663,-1018,-17401
6663,-762,-17401
6919,-762,-17145
6919,-1018,-17145
6663,-762,-17657
6663,-506,-17401
7175,6,-16888
7175,-250,-16889
6663,-250,-17401
6919,6,-17912
6407,6,-18680
6151,-250,-18681
6151,6,-18424
6919,518,-18424
7175,774,-18680
6919,774,-18680
7175,1030,-18424
6919,1030,-18424
6919,774,-18424
7175,774,-18680
6919,1030,-18936
6663,1030,-18936
7175,774,-19192
7175,774,-19192
6919,1030,-18936
6919,774,-18936
7175,774,-19192
7431,1286,-18680
7431,1030,-18936
7431,774,-19192
7431,774,-19192
7687,1286,-18936
7687,1542,-19192
7687,1542,-19192
7943,1542,-18936
7943,1286,-18936
7687,1286,-19192
7687,1286,-19192
8455,2054,-19192
8455,2566,-18424
8199,2310,-18424
8711,2566,-18168
9223,2822,-18168
9223,4102,-18424
9479,5638,-18424
9479,6662,-18168
9479,6662,-18168
9479,8198,-17400
9223,8966,-16376
9223,8966,-16120
9479,8454,-16888
10247,8710,-18424
10503,9222,-20216
10759,9734,-21240
10759,9734,-21752
11015,9734,-22264
11015,9222,-22008
10759,7430,-22008
9735,6662,-21240
9735,6150,-20216
9479,5638,-19448
9479,5382,-19704
9479,5382,-19704
9479,5638,-19448
9223,5126,-19448
9223,3590,-19448
8711,2310,-19448
7175,1542,-18936
6407,518,-18168
6663,-506,-17657
6919,-1274,-17913
6407,-1274,-17913
6151,-1274,-17657
6151,-1530,-17913
6407,-1786,-17913
6407,-2298,-17913
6151,-2554,-17657
6151,-2298,-17657
6151,-2810,-17913
6663,-3066,-17913
6919,-2554,-17657
7431,-2042,-17657
7431,-2298,-17401
7431,-2810,-17401
6663,-2554,-17657
6151,-2810,-17657
6151,-2298,-17657
5895,-2042,-17913
6407,-2042,-17913
6919,-2042,-17657
7175,-2298,-17657
6919,-2298,-17401
6407,-2042,-17401
6151,-2042,-17657
6151,-2298,-17657
6151,-2298,-17401
6407,-2042,-17401
6919,-2042,-17657
6919,-2042,-17657
6663,-1786,-17145
6663,-1018,-16121
7175,1286,-14840
8199,4358,-14840
9223,8198,-16632
11015,12550,-22264
13319,18694,32008
14343,27398,12808
15623,-25338,-10488
17158,-8186,27400
19718,13830,-1783
23045,-24314,-27639
25349,6918,17418
26885,-26106,2826
27141,3590,-5877
26372,22790,-7413
24324,23814,2059
20997,11014,19723
17413,-14842,-23542
14341,18694,778
9734,-12282,26121
5894,20486,-14839
4870,9734,-7159
3846,25862,26376
3591,4870,-25592
3591,-7162,-16377
4103,-13050,-11513
4871,-16890,-9209
5127,-20218,-7929
3847,-22266,-5881
3335,-24314,-4089
3591,-26106,-3321
4359,-28410,-3065
4615,-28922,-1785
4103,-30458,-249
3335,-32250,263
3336,32006,263
3592,31238,775
3080,30982,1799
2568,30214,2567
2824,29190,2567
3336,28422,2311
3080,27654,2823
3336,26886,4103
3336,25350,4871
3080,24326,5127
3336,24326,5639
3592,23814,6407
3592,22022,6663
3336,20998,7175
3592,19974,7687
3336,18694,8711
3848,17414,9991
3848,15622,10503
3848,14598,10759
3592,13830,11783
3080,12038,12807
3336,10758,13063
3336,9734,13831
3592,8710,14855
3592,6662,16135
3592,4614,16647
3848,3846,16903
3336,3334,17671
3336,2566,18951
3592,1542,19463
3592,1542,19463
3592,1542,19207
3592,1286,19463
3592,1286,19463
3592,1798,18951
3592,3078,18439
3336,3846,18183
3592,6662,16903
4104,8454,15623
4360,11270,14343
4104,14598,12295
4104,17414,10759
4360,20742,8711
4360,24582,6407
4104,29446,3847
4104,-31738,1799
5128,-28154,-249
5127,-24058,-2809
4871,-19962,-4857
4615,-16122,-6649
4871,-14330,-8185
5127,-11258,-9977
5383,-8698,-11513
5383,-6138,-12537
5383,-4602,-13305
5127,-3578,-14841
4871,-2042,-15609
5383,-250,-16121
5383,-250,-16633
5639,262,-16632
5639,1030,-17144
5895,1798,-17400
6151,2054,-17656
5895,1798,-18168
5895,2310,-18424
5895,2822,-18680
6151,2822,-19192
5895,2822,-19192
5895,3078,-19448
6407,3590,-19704
6663,3846,-19448
6919,3590,-19192
6919,3590,-19960
6663,4102,-20216
6919,4358,-20216
6407,4102,-20472
6151,3846,-20472
6151,3846,-20216
6407,3590,-20472
6919,4102,-20728
6919,4102,-20728
6919,4358,-19704
7175,4102,-19448
7431,3846,-19448
7175,3846,-19704
6407,3590,-19960
6407,3590,-19960
6919,3334,-19704
6663,3078,-19448
6663,2822,-18936
6919,2566,-18680
6663,2054,-18680
6407,1798,-18936
6151,1798,-18424
5895,1542,-17912
6151,1286,-17400
6151,1286,-17144
5895,1286,-17144
5639,1030,-16376
6151,1030,-15864
6151,774,-16120
5895,1030,-15864
6151,1030,-15352
6407,1030,-15352
6407,774,-15608
6151,774,-15608
6407,774,-15352
6407,1286,-15864
6407,1542,-16120
6407,1542,-16120
6407,1542,-16120
6407,1286,-16376
6151,1286,-16376
5895,1542,-16376
5639,1030,-16632
5895,774,-17144
5127,774,-17400
4871,774,-17400
5127,518,-17656
5383,262,-17656
5639,518,-17400
5895,518,-17656
6151,518,-18168
5895,262,-18424
5895,262,-17912
6151,262,-18168
6151,262,-18168
5895,1030,-17400
5895,1030,-17400
6151,774,-17400
6407,774,-17400
6151,1030,-18424
6151,1030,-18168
6151,1030,-18168
6151,774,-17912
6151,518,-17912
5895,518,-17656
5895,518,-17400
5895,262,-17656
6407,262,-17656
6407,1030,-17656
6663,1030,-17400
6663,1286,-17400
7175,2054,-17656
7175,3078,-17656
7431,5126,-17144
7431,5894,-16120
7175,5894,-15352
6919,6406,-14584
6663,7174,-15096
7431,7174,-15864
7943,6918,-17912
8455,7686,-19704
8199,8198,-19960
8199,8710,-20216
8455,8198,-20216
8455,6150,-20216
7687,5382,-20472
6663,4614,-20216
6663,4358,-18936
7175,3846,-17912
7431,3846,-17656
7431,4358,-18168
6919,4358,-18424
6407,4102,-18424
6407,2566,-18680
5639,1030,-18168
4615,518,-17144
4103,-506,-16889
4103,-1274,-16889
4359,-2042,-16889
5127,-2298,-16633
4871,-2298,-16121
4871,-2554,-15865
5127,-2554,-16377
4615,-3066,-17145
4359,-3322,-16889
4871,-3322,-17145
5127,-3322,-16633
5127,-3066,-16633
5127,-2810,-16889
5127,-3066,-16633
4871,-2810,-16633
5127,-3066,-17401
5383,-3322,-17401
5639,-3066,-17401
5639,-2810,-16633
5383,-2298,-16633
5639,-2298,-16889
5383,-2042,-16889
5639,-1786,-17145
5639,-2298,-17145
5639,-2554,-17401
5639,-2554,-17401
5383,-2554,-16889
5383,-2298,-16633
5127,-1786,-16633
5127,-2042,-16889
5127,-2042,-16889
5383,-2298,-16377
5895,-2042,-15609
5895,-506,-13561
5895,2054,-13048
7175,5638,-14328
8967,9734,-18680
10759,14086,-27896
11783,21510,22280
12295,-32762,8
14599,-17658,-26616
17670,2054,9993
20486,28422,-17399
20997,-28410,-25335
25861,25094,7946
27141,-8698,-3574
26884,15366,-6901
24836,22278,-757
21764,13830,13579
18949,-7930,-30454
15877,27654,-6134
11013,-2810,18953
6406,30982,-22263
4358,-2042,1544
3591,-31482,22280
3335,11782,-28920
3335,-3066,-18937
3591,-10490,-12793
4359,-14330,-9721
5127,-17402,-7673
5127,-19706,-6649
4615,-21754,-4601
4359,-23802,-2809
4103,-25338,-1785
4359,-26362,-1273
4359,-28154,-505
3591,-29178,775
3592,-29946,1031
3592,-30202,1031
4360,-31738,2055
4360,-32762,2823
4104,32006,3335
4360,30982,3079
3848,30214,3079
3592,29190,4103
4104,28166,4359
4872,27398,4871
4872,26630,5383
4360,25606,6151
4104,24070,6919
4360,23046,6919
4872,22278,7687
4616,21254,8711
4360,20230,9735
4872,18694,9991
5128,18182,10247
5128,17414,11271
5384,15366,12551
5384,14342,13063
5384,13318,13319
5128,12038,14855
4872,10502,16135
5128,9222,16903
5384,8966,16903
5384,8198,17927
5640,6918,18951
5640,6150,19463
5640,6150,19207
5640,6150,19207
5640,5894,19975
6152,6150,19975
6408,6662,19719
6408,7942,19207
6408,9734,18183
6408,11526,16903
6920,13062,15623
7432,15878,14599
7432,18950,13063
7176,22022,11527
7944,25350,9479
8200,29446,7687
8200,-31994,5639
8456,-27898,3335
8712,-24314,1031
8712,-20730,-1529
8199,-16890,-3833
8455,-13306,-5625
8711,-10490,-7673
8711,-9466,-8185
8967,-5114,-10489
7943,-3066,-11769
7687,-1786,-13049
7687,-250,-13817
7687,1286,-14072
7687,2566,-15096
7431,3334,-15864
7687,4102,-15864
7687,4358,-16120
7943,5126,-16888
7943,5126,-16888
7687,5126,-17144
8199,5894,-17144
8711,6406,-17400
8711,6406,-17656
8199,6662,-17656
8455,6918,-17400
8455,7686,-18168
8967,7686,-18424
9735,7942,-18424
9735,7942,-18424
9223,7942,-18424
8455,7686,-18424
8711,7942,-18936
9223,7942,-19192
9479,8198,-19192
9223,7942,-18680
9479,7430,-18936
9479,7430,-19192
8711,6918,-19192
8711,6662,-19192
8967,6662,-18936
8711,7174,-18168
8711,6918,-18168
8967,6406,-17912
8967,6406,-17912
7943,5638,-17656
7943,5382,-16888
8199,5382,-16120
8199,5382,-16120
7687,5382,-16376
7687,5382,-16120
7943,4614,-15608
7431,4358,-15352
6919,4102,-15096
7175,3590,-15096
7431,3078,-15352
7175,2566,-14328
6663,2822,-14072
6407,2822,-14072
6407,2566,-14328
6151,2566,-14328
6151,2822,-14328
6151,2822,-13816
6151,2566,-13560
6151,2566,-14072
6407,2822,-14328
6919,2566,-14584
7175,2310,-14840
6663,2822,-15352
6151,3078,-15352
5895,3078,-15352
6151,2822,-14840
6151,2822,-15096
6151,3078,-15608
5895,3078,-15864
5895,3334,-16120
5639,3334,-15864
6151,3590,-15864
5895,3334,-15864
6151,2822,-16120
6151,2822,-15864
5895,2822,-15864
5895,2310,-15608
6151,2310,-15608
6151,2054,-16120
5639,1542,-16376
5383,1798,-16376
5127,1286,-16120
4871,774,-16120
4103,-250,-15353
3591,-250,-15353
3847,-506,-15097
3847,-1018,-15097
3847,-1018,-15353
3591,-762,-16121
3335,-762,-16121
3335,6,-16376
3591,6,-16376
4103,262,-15864
4615,774,-15608
4871,2566,-16120
5127,4102,-16120
5639,5126,-15864
5895,6150,-15096
5639,6662,-13560
5127,7430,-13048
5127,7686,-13816
6151,7686,-15352
6919,7430,-15608
6919,7942,-17912
6919,8710,-19192
6663,9222,-20216
6663,9222,-20216
6919,7942,-19960
6663,6150,-18680
6919,5894,-17400
6407,5894,-17144
6151,5894,-16888
6407,5638,-17400
6663,5894,-17656
6151,5894,-17656
5895,5126,-17400
5383,3590,-16376
5127,2566,-16120
3847,2054,-16120
3847,1542,-16120
4103,774,-15096
4615,6,-15352
4615,-250,-15097
4871,-250,-15097
5127,6,-15096
5127,6,-15352
4871,-762,-15097
5127,-762,-14585
6151,6,-14328
6151,6,-14584
5383,6,-14584
4871,6,-14840
4871,262,-15352
5383,6,-15352
5639,-250,-15097
5383,262,-14584
5383,518,-14584
5895,774,-14840
6407,774,-14840
6663,518,-15096
6663,774,-14840
6663,774,-14840
6663,1030,-14840
6919,1542,-14584
6663,1542,-14584
6407,1798,-14840
6919,1798,-14840
6919,1798,-14840
6663,2054,-15096
6663,2566,-14840
6919,2566,-13816
7687,4102,-12792
7687,5126,-12536
9991,10246,-11768
11527,13830,-13304
13063,18694,-19192
14343,25862,-31992
14855,-30458,13576
16135,-17146,-9720
18182,262,28681
21766,23046,9
24838,-15098,-25847
27141,15878,20746
28677,-18170,7690
28933,8966,523
28165,23046,1547
25605,20230,13323
22789,2310,-31989
19717,-26618,-8950
16133,8198,14858
12038,-21754,-26359
8710,11526,-1527
6918,-18170,19464
6663,23814,-30968
7431,7686,-19704
7431,-1530,-11513
7943,-6650,-7417
8711,-8186,-7161
8711,-12282,-5625
8455,-14586,-3321
8199,-16890,-761
8199,-18938,7
7688,-19962,-249
7175,-21498,7
7432,-23290,1287
7432,-24570,2311
7432,-24826,2311
7176,-25850,2055
7432,-27386,2567
7176,-28666,4103
6920,-29178,4359
6920,-29946,4359
7176,-31226,4871
6920,-32762,6151
7176,32518,6919
7688,32518,6919
7944,30982,7431
7432,29446,7943
7176,27654,8967
6920,26630,9991
7176,25862,10247
7176,24070,10247
6920,23302,10503
6920,22534,12039
6664,21766,12295
6664,19974,12295
6664,18182,13575
6152,16902,14343
6152,15878,15367
6152,14342,16135
6408,12038,16647
6408,10758,17927
6408,10246,18951
6152,8966,18951
6408,7174,18951
6152,7174,19463
5896,7174,20231
6152,6406,19975
6408,6406,19975
6408,6150,19975
6408,6918,19975
6408,7430,19463
6664,9222,17927
6408,11270,17159
6152,13830,16135
6408,15878,14855
6408,18438,13319
6152,19718,12807
6408,26118,9991
6664,29702,7687
6408,-31482,5127
6152,-27130,2311
5896,-23034,519
6152,-19450,-1017
5895,-16378,-3321
5895,-12794,-5369
6663,-9466,-6393
6663,-7162,-7417
6663,-4858,-8953
6407,-3066,-10489
6407,-506,-11257
6407,262,-12280
6919,1030,-12536
7175,1798,-13816
7175,2822,-13816
7175,3590,-13560
7431,3846,-13560
7943,4614,-14328
7687,5382,-14840
7687,5894,-14840
7431,5638,-15608
7175,5638,-16376
7943,5382,-16376
8199,5638,-16120
8199,5894,-16120
7943,5894,-16376
7943,6150,-16376
8199,6662,-16120
9223,7174,-16376
9479,6918,-16376
8711,6918,-16376
8199,7174,-16376
8455,7174,-16632
8711,6662,-16376
8199,6406,-16376
8199,6406,-16632
8455,7430,-17144
8711,7430,-16888
8455,7174,-16888
8711,6406,-16632
9223,6406,-16376
9735,6662,-15864
9735,6662,-15864
9735,5894,-16120
9479,5638,-15864
9479,5638,-15096
9479,5382,-14840
9479,5126,-14840
10247,5126,-14584
9991,4870,-14328
9735,4870,-13816
9479,4102,-13816
9223,3334,-13816
9479,3590,-13560
8967,3078,-12792
8711,3078,-12536
8967,2822,-12792
8967,2822,-12536
8967,3078,-12536
8711,3078,-12536
8711,2822,-13048
8967,2566,-13304
8967,2822,-13304
8967,2822,-13560
8711,2822,-13048
9479,2566,-12792
10247,3078,-12792
9735,3590,-12792
8967,3334,-13048
9223,3078,-13304
8967,1798,-13816
8967,1798,-13560
8711,2566,-13560
8711,3078,-13816
8455,3078,-14072
8455,2822,-14072
9223,2822,-14072
9223,2822,-14328
8967,2566,-14072
8967,2310,-14072
8455,2054,-14072
8455,2310,-14072
8711,2822,-13816
8967,2822,-13560
8711,2566,-14072
8199,1798,-14328
8455,1798,-13816
8711,1542,-13816
8711,1542,-14072
8967,1286,-14072
8199,774,-13304
7687,262,-13304
7687,518,-13560
7687,262,-14584
8711,774,-14584
9223,2310,-14328
9991,2822,-14584
10247,2822,-14584
10759,5382,-14584
11271,6918,-13816
11271,8454,-13304
11527,8966,-12024
11527,8966,-11512
11783,8966,-12280
12295,10246,-13560
13575,11782,-15608
14599,11782,-17144
14855,12294,-18680
14599,12806,-18936
14087,12550,-18936
13319,11270,-19192
13063,9734,-18168
13063,9222,-16632
13575,8710,-15352
14599,9222,-15608
14855,9478,-15608
14343,9478,-15864
14087,9990,-15864
13831,9222,-15608
12807,6918,-15608
12039,5126,-14840
12039,4614,-14072
12295,4614,-14072
12551,4102,-13560
12039,3078,-13304
12039,2822,-13304
12295,2822,-13560
12039,2822,-13560
11271,3078,-13816
11271,2822,-13816
11527,2310,-14072
11527,1798,-14328
11271,1798,-14328
11527,1542,-13816
11527,1286,-14072
11527,1286,-14072
11271,1030,-13816
11015,774,-13560
11015,262,-14072
11527,262,-13816
11527,518,-13816
11271,1030,-14072
11527,1286,-13816
11527,1542,-14328
11783,1542,-14584
12039,1798,-14584
11783,1798,-14584
11783,1542,-14328
12295,1798,-14072
12295,2054,-13560
12039,2566,-13304
12039,2566,-13304
12039,2310,-13560
12295,2310,-13048
12295,3846,-12024
12807,5894,-10488
14087,8966,-10232
16135,13318,-12280
17671,18694,-17912
18439,27142,-30200
19207,-27898,17160
20231,-14074,-5112
21766,4358,-31735
23558,26886,6409
26118,-11514,-17911
28933,18950,28170
30469,-16122,15114
30469,10502,7435
28677,22790,8715
25605,18950,20747
23301,1286,-25845
20229,-29178,-3318
19205,26118,3338
12806,-27898,-21239
9990,5126,2057
8967,-24314,21768
8711,17670,-29176
8967,1798,-18168
9223,-7162,-11001
9735,-11514,-7929
10247,-14586,-6649
9991,-17658,-5113
9479,-19706,-2553
9223,-22266,-1273
9223,-24314,-1017
9223,-25850,-761
8967,-27130,519
9224,-28410,1799
8968,-29946,1799
7688,-30970,1543
7688,-32506,1799
7688,31750,3079
7944,30214,4103
7944,29446,4359
7944,28934,4359
7688,28422,4615
7688,27142,5383
7432,26886,5383
7432,25606,6151
7432,24326,6151
7688,23558,6407
7432,22534,6919
7688,21254,7431
7688,19974,8199
7688,18694,8967
7432,17158,9991
7688,16390,10503
7688,15366,11015
7944,14086,11527
7944,12550,12807
7688,11270,13319
7688,10246,13319
7944,9478,14599
8456,7430,15111
8456,6918,15879
8456,5382,16647
8712,4614,17927
8712,3078,18695
8200,1798,18695
8200,1798,18951
8456,1286,19207
8968,1030,19463
8968,1286,19207
9480,3078,18951
9736,4614,18183
9992,5382,17159
9992,6662,15879
9736,9990,15367
9480,12806,13831
9992,15110,11783
10760,18694,9991
11016,23046,8199
10504,28166,5639
10504,32006,2567
10248,-29946,519
9992,-25082,-761
9479,-20730,-2553
9991,-17146,-4857
10247,-14586,-7161
10503,-11514,-8185
10503,-7930,-8697
10503,-6138,-10489
10247,-4858,-12281
9991,-3322,-13049
9735,-1018,-13305
9479,262,-14072
9479,262,-14584
9223,774,-14840
9479,2054,-15608
9735,2822,-15864
9735,3078,-15864
9991,2822,-16376
10247,3334,-16632
10503,4102,-16888
10759,4358,-16888
10503,4358,-16888
10247,4614,-17144
10247,5382,-17144
10247,5126,-17144
9991,5382,-17400
9991,5126,-17656
10503,5126,-17656
10503,4870,-17400
10247,5126,-17400
10247,5126,-17400
10759,5126,-17912
10759,5126,-17656
10503,4870,-17400
9479,4358,-17912
9223,4614,-18168
10247,5126,-18168
10503,4870,-18168
10759,5126,-17912
10503,4102,-17656
9735,3846,-17656
9991,3846,-17656
10247,3846,-17400
9479,3846,-17400
9223,4102,-17144
9479,3078,-17144
9223,2566,-16376
8967,2822,-16120
9223,3078,-16120
9735,2822,-16376
9479,2566,-15864
9479,2566,-15352
9479,2310,-15096
9223,1798,-15096
9223,1542,-14840
9479,1542,-14840
9735,1286,-14840
9479,1030,-14584
9223,1286,-14840
9223,1542,-14840
9223,1286,-14584
8967,1798,-14072
8455,2054,-14584
8455,2054,-15096
8711,2054,-15096
8199,1286,-15352
8199,1286,-15352
7943,1542,-15352
7943,1798,-15096
7687,1542,-15608
7431,1030,-15864
7943,1286,-15864
8199,1030,-16120
7943,1030,-16376
7431,1030,-15864
7175,262,-15608
6919,-250,-15609
7175,-250,-15865
7175,-250,-15865
6919,-506,-16121
6663,-762,-16121
6663,-506,-15865
7175,-762,-15865
6919,-506,-16121
7175,-1018,-15865
7175,-1274,-15865
7175,-1274,-15865
6919,-1018,-16121
6919,-1018,-16121
7175,-1274,-15865
6663,-1274,-15609
6151,-1530,-15609
6151,-1530,-15609
6151,-1274,-15353
6407,-506,-15353
7175,1286,-15608
7431,2310,-15608
7175,3334,-15096
7175,3590,-13560
7175,4102,-12792
7431,4614,-12536
7431,4870,-13560
7431,4870,-15608
8455,4870,-16632
8711,5382,-17400
8455,5638,-18424
8711,5638,-19192
8455,4614,-18936
7943,3590,-17912
6919,2822,-17144
6919,2054,-16888
6919,1542,-16888
6663,1798,-16376
6663,1798,-16120
7175,1798,-16120
6919,1030,-16120
6151,-762,-16377
4871,-1786,-16121
4359,-2554,-15609
4103,-2810,-14585
4103,-4090,-14841
4103,-4858,-15097
4103,-5114,-14841
4103,-4858,-14841
4359,-5370,-14841
3847,-5882,-15097
3591,-6138,-15097
3591,-6138,-15353
3335,-6394,-14841
4359,-6394,-14073
4359,-6906,-14585
4103,-6650,-14841
3847,-6650,-14841
3591,-6906,-15097
4103,-6394,-15097
4615,-6394,-15097
4871,-6138,-14841
4359,-6394,-14841
4103,-6394,-14841
4103,-6138,-15097
4103,-6138,-15353
4103,-7418,-15353
3847,-7162,-15353
3335,-6650,-16121
3591,-6650,-16121
3847,-6138,-15865
4103,-6138,-15353
4103,-5882,-15353
4359,-5626,-15097
4359,-5370,-14841
3847,-5626,-14585
3335,-5882,-14329
3591,-3322,-12537
4871,262,-11512
6919,3846,-13048
8199,8710,-18680
9223,15622,-29432
10759,25350,19464
11527,-27898,-3576
12806,-11770,-30968
15878,10758,5385
19206,-26874,-20471
22277,4614,24074
23045,13830,17930
25093,1030,-2037
24836,23558,-3573
23300,26118,5131
20229,14342,20491
16645,-10490,-23798
13317,23558,778
10246,-8186,26633
6150,24070,-14839
3590,-9210,7432
3591,28166,26120
3847,6406,-24568
4103,-6650,-15353
3847,-13050,-10745
5127,-16634,-7673
5895,-19706,-6137
5639,-22266,-4089
5383,-24314,-2809
5127,-26618,-1785
5383,-28666,-249
5127,-29946,775
4360,-31226,1031
4104,-32506,1799
3848,32518,2823
3848,31238,3335
4104,30470,3079
3592,28422,3335
2824,27398,4359
2568,26374,5127
2568,25094,5639
2568,24326,5895
2824,23302,6407
2824,22022,6919
3080,20486,7431
2568,19462,7943
2056,18182,8455
2056,16646,9479
2312,15622,9991
2056,14598,10503
2056,13318,11015
2056,12294,12039
2312,10758,12807
2312,8966,13063
2056,7686,13575
1288,6150,14599
1544,5126,15623
1544,3334,15879
1288,1798,16903
1288,774,18183
2312,-250,19206
2824,-1018,18950
2312,-2810,18950
1800,-3322,19974
1800,-3834,20230
1544,-4858,20486
1544,-4602,20486
1288,-4602,19718
1800,-4090,19462
1800,-2042,19462
1544,-1018,18694
1544,518,17159
1544,2566,15879
1288,5382,14855
1288,8454,13319
1544,11782,11271
1800,15622,8967
2056,19974,6919
2312,24070,4359
2312,28166,1543
2056,32262,-505
2055,-29178,-2809
2055,-25082,-4601
2055,-21754,-6905
2311,-18938,-8441
2055,-16122,-9977
2055,-14842,-10745
2311,-11258,-13305
2055,-9722,-14073
2055,-8186,-15097
2055,-6906,-15609
2311,-6138,-16377
2311,-5370,-17145
1799,-4602,-17657
1799,-4090,-17913
2055,-4090,-18169
1543,-4346,-18937
1287,-3834,-19193
1287,-3578,-18937
1287,-3066,-19193
1543,-3322,-19705
1799,-3322,-19449
2055,-2810,-19193
2311,-2298,-19449
2567,-2298,-19705
2567,-2554,-20217
2311,-2554,-20473
2311,-2298,-20473
2311,-1530,-20729
2823,-1274,-20729
3335,-1274,-20729
3079,-1018,-20729
3335,-1274,-20729
3335,-1530,-20985
3079,-1530,-21497
2823,-1530,-21241
2823,-1786,-21241
3079,-2042,-21241
3079,-1530,-21241
3079,-1530,-21497
2311,-2298,-20985
1799,-3066,-20473
1799,-3066,-20473
1543,-3066,-20217
1287,-3834,-19961
1287,-4602,-18681
1543,-4602,-18937
1799,-4602,-18937
2055,-4602,-18425
2055,-4602,-17657
2055,-4858,-17145
2055,-5370,-17401
2055,-5626,-17401
1543,-5370,-17401
1543,-5114,-17401
1543,-5626,-16889
1799,-5882,-16633
1799,-5882,-16889
1543,-5626,-16889
1031,-5626,-16889
775,-5882,-16121
519,-5626,-16121
775,-5626,-17145
775,-5370,-17401
519,-5114,-17401
775,-4858,-17657
1031,-4602,-18425
775,-4346,-18425
775,-4346,-18169
775,-4858,-18169
263,-5114,-18425
263,-4858,-18681
263,-4858,-18681
775,-4602,-18681
1031,-4602,-18681
775,-4346,-18937
775,-4346,-18937
775,-4858,-18681
775,-5114,-19193
1031,-4602,-19449
1287,-3834,-19705
1543,-4090,-19705
1287,-4602,-19449
1287,-4602,-19449
1031,-4090,-19449
1031,-4090,-19193
1031,-3834,-19449
1031,-3578,-19705
1031,-3578,-19961
1799,-3578,-19705
2055,-3578,-19449
2055,-3322,-19705
2311,-3066,-19705
2311,-1786,-19961
3591,-1530,-19961
4615,-250,-20217
4615,2054,-20216
4871,3334,-19960
5895,4102,-19960
5639,4614,-18936
5383,5126,-17656
5127,5382,-17656
5383,5382,-18936
5383,5638,-20472
5639,5638,-21496
6151,5638,-22008
6407,6150,-22520
6151,6150,-24056
5639,5894,-23800
5383,4358,-22776
5127,2566,-21240
4615,2054,-21240
4615,2054,-21240
4615,1798,-20472
3847,1542,-20472
3847,1542,-20472
3335,518,-20728
2567,-1018,-20473
1799,-2298,-19449
1031,-3578,-19449
1031,-4090,-19449
1031,-4858,-18937
775,-5626,-18425
775,-6138,-18425
1031,-6394,-18425
1031,-6394,-18681
775,-6650,-18937
1031,-6650,-18937
1287,-6906,-18681
1287,-6906,-18681
1031,-6650,-18937
1287,-6650,-18937
1287,-7418,-18937
1287,-7418,-18681
1287,-7162,-18681
1031,-7162,-18937
775,-7418,-18937
1031,-7418,-18681
1287,-7162,-18681
1031,-6906,-18425
1031,-6906,-18425
1287,-6906,-18681
1031,-6906,-18681
1031,-6650,-18425
1031,-6650,-18425
1287,-6906,-18681
1287,-6394,-18681
1543,-6650,-18937
1543,-6394,-18937
2311,-5882,-19449
2055,-6138,-19193
1799,-6394,-18169
1287,-4858,-16377
2055,-1786,-15609
4103,1798,-15864
6151,5638,-19192
6407,7430,-20984
8199,17926,24328
9223,28166,3848
11015,-23546,-21496
13318,-4858,15368
15366,19718,-13303
18437,-16122,28425
21765,15622,9994
23045,-17914,-2550
23044,10758,-8437
20996,22022,-5877
19204,17670,6923
16133,-1018,26378
12805,-29946,-15862
8197,4358,8970
4614,-26618,-31991
1542,5638,-7671
262,-25850,13064
-505,14341,29960
-505,-3323,-24057
7,-12794,-16121
775,-17402,-12537
775,-20474,-11001
775,-23290,-8953
775,-25338,-6649
1031,-26362,-5881
1031,-29690,-4857
775,-30202,-4857
775,-31482,-3065
775,32518,-2041
1031,31238,-1785
1031,30726,-1273
1031,29702,7
1032,28422,263
1288,28166,519
1032,26886,775
1032,26118,775
776,25094,2055
776,23814,2823
520,22790,2823
520,22022,3335
264,20742,4103
264,19462,4615
520,18694,5383
1032,17670,5639
1032,16646,6151
1288,15622,6919
1032,14854,7431
1544,14342,8455
2568,13574,9223
2824,13062,9479
3080,11270,10759
3080,10502,11271
3080,9990,11527
3080,8710,12295
4360,7942,13575
5128,7686,14087
5640,7686,14343
5640,7174,15367
6152,7174,15623
7432,7430,15623
7432,7430,15623
8200,7942,16391
9480,9734,16647
10504,11526,16647
11272,13574,15623
12552,15622,14087
13320,18694,13063
14344,21766,12295
14856,24582,11783
14856,26886,10503
15368,30470,8455
15880,-31226,7175
15624,-27898,5383
15368,-24570,2567
15880,-22778,1543
15880,-15866,-1785
15623,-11770,-4345
15623,-8186,-6649
15879,-5114,-9209
15879,-2042,-10489
15111,518,-11512
14599,1798,-12792
14343,3078,-14584
13575,4870,-15096
12807,5894,-16120
12295,6662,-17400
12551,6662,-18168
11783,7686,-18680
11527,8454,-18936
10759,8710,-18936
10759,7686,-19704
10759,7430,-19704
10759,7430,-19704
9479,7430,-19704
9479,7430,-19960
8967,6918,-20472
8711,6918,-20472
8711,6662,-20728
8455,6662,-21496
8711,6406,-22008
8711,6406,-22008
8455,6406,-21752
7943,6150,-21752
7687,5638,-22008
7431,5382,-23032
7175,5638,-23288
7175,5638,-22264
7175,5638,-21752
6919,5382,-21752
6919,4870,-22520
6663,4614,-22520
5639,3846,-22264
5383,3078,-22264
5127,2822,-22520
5127,2822,-22264
4871,2054,-21752
4615,1542,-21752
4359,1286,-22008
4103,1286,-22008
4103,1286,-21496
4103,1286,-20728
4359,1286,-20984
4359,518,-20472
4359,262,-19960
4359,6,-20216
3591,-250,-19705
3335,-762,-19193
3591,-1530,-19193
3335,-2042,-18681
3335,-2042,-18681
3335,-2554,-18425
3079,-2810,-18937
2567,-2810,-18937
2823,-2554,-18681
2823,-2554,-18425
2567,-2298,-18681
2311,-2810,-18681
2823,-2810,-18681
3079,-2554,-18681
3079,-2042,-18425
2567,-2298,-18425
2823,-2298,-19193
2823,-2298,-19449
2823,-1530,-19449
3079,-1530,-19449
2567,-2042,-19449
1799,-2554,-19449
1799,-2810,-20217
1799,-2042,-20217
2055,-1530,-20473
2055,-2042,-20473
2311,-2042,-20217
2311,-1786,-20729
2311,-1786,-20729
2311,-2042,-20473
2567,-2042,-20217
3079,-1786,-20217
3079,-2042,-20473
2311,-2298,-20217
2055,-2810,-20217
2311,-3066,-20473
2311,-2810,-20985
2055,-2810,-21241
2055,-2810,-20729
2311,-3066,-20729
2311,-3066,-20473
2567,-2810,-20217
2311,-2810,-20473
2567,-2042,-20985
3079,-762,-21241
3335,1030,-21240
3335,2054,-20216
3335,2054,-19192
3335,2054,-18680
3079,2822,-18936
3335,2822,-19192
3591,2822,-20216
3591,2822,-22520
3847,2566,-24568
4615,3078,-24824
4871,3590,-24568
4615,3334,-24568
3591,2310,-24824
3591,774,-24568
3335,262,-23032
3335,518,-22776
3335,262,-22520
3591,-250,-22777
3335,6,-22776
3335,-250,-22777
3079,-1530,-22009
3079,-3322,-21753
2055,-3834,-20985
1031,-4346,-20729
1287,-5370,-20473
1287,-6650,-19961
519,-7418,-19705
519,-7674,-19705
519,-7674,-19449
775,-8442,-19705
519,-9466,-19705
-249,-9979,-19705
-1785,-11003,-19705
-2553,-13051,-18937
-3321,-14587,-18425
-3833,-14843,-18681
-4345,-14843,-19449
-4345,-14843,-19961
-3577,-14075,-19705
-3065,-13051,-19705
-2297,-12539,-19961
-1785,-12027,-20473
-1273,-11515,-20217
-761,-11003,-20217
-505,-10491,-20473
-249,-10235,-20985
-249,-10491,-20473
7,-9978,-20729
7,-9466,-20729
7,-9722,-20729
519,-9210,-20473
1031,-8698,-20473
1287,-8442,-20217
1543,-8442,-20473
1543,-8442,-20473
1799,-7418,-18937
1799,-5370,-17657
2311,-3066,-16889
3591,6,-17912
5383,4870,-21752
7175,10502,-30456
9223,17670,21000
10503,27398,264
12551,-23290,-25336
15110,-3322,10504
17926,21254,-17911
20997,-14586,24585
24325,17926,6410
25861,-14586,-6646
26116,12550,-11253
25604,24326,-7413
24068,17926,6411
20997,774,25355
17669,-28666,-15862
14085,5894,9738
10758,-24826,-30967
7430,7686,-7159
5638,-23290,14088
5383,17158,30216
5639,10758,-30968
6151,-8442,-17401
5895,-13050,-13817
5895,-17146,-12025
5639,-20474,-10233
4871,-22266,-7929
4359,-24826,-6905
3847,-27386,-5881
3847,-29946,-4857
3591,-31226,-3833
2823,-32250,-3065
2311,30982,-3065
2311,29702,-2297
2311,29190,-2041
2055,28678,-1529
2311,27142,-1017
2311,25862,-761
2311,25350,7
1544,24582,263
1288,23558,263
1032,21766,775
1032,21254,1543
1288,20998,2311
1288,19974,2823
1544,18694,3847
1800,18438,4103
1800,17158,5383
1800,16134,5639
1544,14086,6151
2056,13574,7175
2568,13318,7687
2824,12550,8455
3080,10502,9479
3336,9478,10759
3592,8966,11527
3592,7686,12039
3592,6406,12551
3848,4614,13319
3848,4102,14343
3848,3590,15111
3848,2054,15623
4104,1286,16391
4360,1030,17159
4360,1030,17159
4104,1798,16647
4104,1798,15879
4360,2310,15367
4104,3590,15367
4360,5638,14599
4104,6918,13063
4104,7430,12551
4360,12294,10503
4616,16134,8455
4616,19462,6151
3592,22534,3591
3848,26886,1799
4104,31494,7
4104,-29946,-3065
4103,-26618,-6393
3847,-23034,-6905
3591,-19450,-8697
4615,-16122,-11001
4359,-14074,-13049
4103,-11770,-13817
3591,-9722,-14073
3335,-7674,-16121
3847,-6394,-17145
3847,-5882,-17913
3591,-4346,-18169
3847,-2810,-18937
3591,-3066,-19705
3591,-2810,-19961
3591,-1786,-19961
3591,-250,-20729
3591,262,-21496
4615,262,-21496
5639,1286,-21752
5383,2566,-22008
5383,3334,-22776
6407,3078,-23544
7687,3846,-23544
7943,5126,-23544
7943,5894,-23288
8711,6150,-23288
9479,6662,-23544
9479,7174,-24312
9223,7174,-24312
9479,7430,-24056
9479,7430,-24056
9735,7430,-24568
10247,7174,-24568
10247,7686,-24824
10759,8454,-24568
10503,8198,-24568
10503,7942,-24312
10759,7430,-24312
10503,6918,-24056
9735,6406,-23032
9223,5382,-22776
9223,4102,-22264
8967,3846,-22264
8455,3078,-21752
8199,3334,-20984
8199,3334,-20984
8455,3846,-20984
9223,4614,-21240
9223,4614,-21240
9479,4870,-19960
9479,4614,-19448
9479,4358,-19448
9479,4358,-19448
9479,4358,-19192
9479,4102,-19192
9991,4102,-18936
9991,4358,-18936
9991,4614,-18936
11015,4870,-18680
11015,5382,-19448
11271,6918,-19448
11527,6918,-19448
11271,7430,-19448
11527,8198,-19448
12551,8966,-19448
13063,9478,-19448
13319,9478,-19448
13063,9478,-19704
13831,10502,-19704
14343,10758,-19960
14599,11526,-19960
14343,11270,-20216
14343,11270,-19704
14343,11014,-19704
14343,11270,-19960
14599,10502,-19960
14599,9478,-19704
13831,8710,-19448
13319,8966,-19448
13575,8966,-19448
13575,7942,-19448
13063,6918,-19192
12295,6918,-18936
12039,6918,-18936
12295,5894,-18680
11783,5126,-18680
10759,4870,-18936
10503,5382,-19192
10503,5382,-19192
10503,5382,-18936
10247,5638,-18936
10759,6662,-18936
10759,6918,-19192
11271,7942,-19448
11527,8710,-18680
11271,9734,-17400
9991,9734,-17144
10247,9990,-16888
9991,9734,-16632
10247,10502,-17144
11271,11526,-18680
11271,11782,-21496
11015,11526,-22008
11015,11782,-21752
11015,11782,-22264
11015,11014,-23800
10759,9734,-23288
10247,8454,-21496
9479,8198,-19448
9479,8198,-19448
9735,8198,-20472
9735,7942,-20728
9479,7942,-20216
9479,7686,-19960
8711,6406,-19960
7687,5126,-19704
6919,4358,-18424
7175,4102,-18168
6919,3078,-17912
6663,1798,-18424
6919,1030,-18168
7175,1030,-18168
7943,1286,-17912
8455,1286,-17912
8711,1030,-18680
8711,1030,-18168
8455,1542,-18168
8455,2054,-17912
8199,2310,-17656
8199,1798,-18168
7943,1542,-18424
7943,1542,-18680
8455,1542,-18424
8711,1286,-18680
8455,1542,-18680
7431,1286,-18424
7431,1030,-17912
7943,1030,-17912
8199,1286,-18168
8199,1286,-18168
7943,1286,-17912
8199,1286,-17912
8199,1542,-18168
8199,1542,-18168
8199,1286,-17912
7943,1798,-17400
7943,1798,-17400
7943,2054,-17144
8199,2054,-17144
8199,3590,-16376
8711,5894,-14328
10503,9222,-13816
12295,13830,-16376
13319,18182,-22008
14343,24582,32264
16391,-31482,14600
17671,-19194,-8696
19206,-2298,29704
21510,19206,1289
24582,-19450,-24311
27909,11014,20490
29189,-23290,5642
29701,5638,-2805
29188,22278,-2037
27652,21254,8715
24325,6406,26635
20229,-21242,-15862
19973,-30970,-8438
13573,-17146,-32503
9222,16646,-8695
6662,-13306,12296
6407,26886,29704
7431,9478,-23544
8455,-1018,-15353
8455,-6650,-11513
8199,-10490,-9209
8199,-13050,-7417
8455,-15098,-4857
8199,-16890,-3065
7943,-19194,-3065
7943,-20474,-2297
7943,-21242,-1273
7943,-22778,-505
7943,-24570,-505
7943,-25338,-505
7431,-25594,263
7176,-27130,1287
7432,-28666,1799
7432,-29178,1799
7688,-29178,2567
8456,-29434,3591
8456,-30458,3847
8456,-30970,3847
8456,-31738,3847
8712,-32506,4359
9224,31238,6151
8968,29958,6407
9224,29702,6407
9480,28934,6663
9736,27910,7431
9736,25862,8455
9480,25350,8967
9736,24582,9735
9992,22790,10759
9480,20742,11783
8456,19462,12551
8712,18950,12807
9224,16902,13831
8968,15110,15111
8968,13830,15623
8968,13062,15879
9224,11782,16903
9224,10502,17927
9224,9734,18183
8712,9478,18183
8456,9222,18439
8968,8710,18695
8968,8454,18695
8968,9478,17927
8968,11270,17159
8456,12294,16135
8456,13574,14855
8456,15622,13831
9224,19206,13063
9480,22278,10759
9224,25350,8711
8968,28934,6919
9736,-31994,4615
9736,-27386,2055
9480,-23546,519
9480,-19450,-1785
9735,-15610,-4345
10247,-12026,-6137
9991,-8954,-7417
9991,-6394,-9209
10247,-4602,-11513
9479,-2554,-12281
9223,-506,-13049
9223,1030,-13816
9479,2566,-14840
9479,3846,-15096
9223,4358,-15864
9479,4358,-15864
9223,4870,-16120
8967,5382,-16632
8967,5894,-16888
9223,5638,-17656
9223,6150,-17656
9479,6662,-17656
9479,6918,-17912
9479,6918,-18424
9735,6918,-18680
9991,6662,-18680
9735,6918,-18936
9735,7430,-19448
9991,7430,-19192
9991,7174,-19192
9479,7174,-19448
9735,7430,-18936
9735,7686,-18424
9479,7174,-18680
9479,7174,-19192
9735,7174,-19448
9735,7174,-19448
9735,6918,-19448
9991,7174,-19192
9991,7174,-18680
9735,7174,-18424
9735,6918,-18424
9735,7174,-18424
9735,7174,-18424
9735,6406,-18680
9479,5894,-18168
9479,5382,-17912
9735,5382,-17400
9735,5382,-17656
9479,4870,-17144
9479,4614,-16632
9223,4358,-16376
9479,3846,-16376
9223,2310,-16376
8967,2054,-15608
9223,1798,-14840
8711,1798,-14840
8455,2054,-14840
8455,2054,-15096
8455,1798,-15096
8455,2054,-15352
8199,2054,-15352
8199,1542,-15352
8455,1286,-15096
8711,1030,-15096
8455,1542,-15352
8199,1542,-15352
8199,1798,-15096
7687,1542,-15096
6919,1286,-15864
7431,1030,-15864
7943,1798,-15608
7943,2822,-15608
7943,2566,-15352
8199,2310,-16120
8455,2566,-16376
8199,3334,-16120
8199,3334,-16376
9223,3590,-16376
9223,3590,-16120
8711,3078,-16120
8711,3078,-16120
8711,2310,-16376
8455,1798,-16120
8455,2054,-16120
8711,2822,-16120
8455,3078,-16888
8455,2822,-16888
9223,2822,-16632
8967,2566,-16632
8967,3078,-16376
8455,2566,-16376
8199,1542,-16120
8199,1030,-16120
8199,1030,-15864
8455,2566,-15864
8455,3590,-15864
8711,4358,-15608
9223,4870,-15608
9479,5382,-15096
8711,5894,-13048
8711,6662,-12536
8967,6662,-14072
10503,7430,-16120
11015,8966,-17656
11271,10246,-18680
11527,10758,-20216
12295,11270,-20472
13063,11270,-20472
13063,11270,-20472
13063,10502,-20216
13319,9478,-19192
13831,9478,-18680
14087,9734,-18424
14087,9990,-18424
13831,9990,-18680
13831,10246,-18424
13831,9734,-17656
13831,8198,-16888
13063,6150,-16120
11783,5126,-15864
11527,5126,-15352
12807,5126,-15096
12807,5126,-15608
12807,4870,-16120
12295,4358,-16376
12295,4358,-16120
12551,4358,-15608
12551,4102,-15352
13063,3846,-15352
13575,3846,-15608
13319,4102,-15608
13319,3846,-15864
13063,3590,-15864
13063,3846,-15608
13063,4358,-15608
13575,4102,-15864
13831,4614,-15608
14343,4870,-15608
14599,4870,-15608
14599,5126,-15352
13831,5126,-15352
13831,4870,-15608
14087,4870,-15608
14087,5126,-15608
13831,5126,-15352
14087,4870,-15352
14087,4870,-15608
14087,5126,-15608
14087,5382,-15352
13575,5126,-15352
13319,5382,-15096
13319,5638,-14072
14087,7174,-12792
14855,10246,-12024
16391,15366,-12792
17927,20230,-16632
19463,26374,-26616
20999,-30458,23048
21255,-17402,1800
22535,-1274,-23544
24838,18438,13833
27910,-22266,-11767
30469,6662,32522
32261,-27642,17162
-32251,-18426,13066
-32763,19462,5643
30469,22534,13323
26885,9478,29963
23301,-16890,-13814
20485,16134,10250
16390,-15098,-31223
12550,19974,-8183
10758,-10746,13320
11015,28166,30472
11271,9734,-22520
11527,-1018,-14841
12039,-6394,-10489
12551,-10746,-7929
13063,-14330,-6393
13063,-15610,-5369
13063,-17402,-3065
12807,-19962,-2297
12295,-21498,-2041
12295,-22266,-1529
12295,-22778,-249
11783,-24314,519
11528,-25850,1031
12040,-25850,1799
12552,-26874,2311
12296,-27642,3079
12040,-30202,3335
12296,-30458,3079
12296,-30970,4103
11784,-32762,5127
11784,30726,5383
12040,30470,5383
11784,30214,6407
11528,28934,6663
12040,27142,6663
12552,26118,6919
12296,25606,7175
12040,24070,7687
12040,21766,8967
12040,20486,9991
12040,19718,10759
12040,18694,11271
12296,16134,11783
12040,13830,13063
11784,12806,13831
11784,11526,14343
11784,9222,15879
11784,7174,16647
11272,6150,17159
10504,5382,17415
10248,4358,17927
9992,2310,18951
9736,2054,18695
9480,1798,18695
9480,1286,19207
9480,1030,19719
9480,1030,19463
9480,1542,18439
9736,3590,17671
9736,5126,16647
9224,6662,15111
9480,9478,14087
9736,13574,12295
9736,16390,10503
10248,19718,8199
11016,24326,6151
11016,28678,4103
10760,-31994,1543
10760,-27642,-761
11271,-23546,-2809
11271,-19194,-4601
11527,-15610,-6649
11783,-12794,-8441
11783,-10234,-9465
11783,-7674,-10489
11527,-6394,-10745
11527,-3834,-13049
11783,-3066,-13561
12039,-1018,-14073
11783,262,-14584
12039,1286,-15096
12039,1542,-15352
12295,2310,-15608
12551,2822,-16120
12039,2566,-16120
11783,2822,-16888
11783,2822,-16888
11783,3078,-17144
11783,3590,-17144
12039,3846,-17400
12295,3590,-17400
12039,3590,-17400
12551,3334,-16888
12551,3334,-16888
12807,3846,-17144
12807,4102,-17400
12551,4102,-17400
12551,3334,-17144
12807,2822,-17144
12551,3078,-17144
12039,2822,-16888
10759,1542,-17144
11015,1542,-17656
11015,1542,-17400
10759,1030,-16888
11015,774,-16632
10759,1030,-16632
11015,1030,-16888
11527,1030,-16888
11783,774,-17144
11015,262,-16632
10503,6,-16376
10503,-1274,-15609
10247,-2810,-14841
9223,-4090,-14073
7943,-5114,-13305
7687,-5114,-13305
7943,-4602,-13561
7943,-3322,-14329
9223,-1530,-14841
10759,-250,-14841
12039,1286,-15096
13575,4102,-15352
15879,6918,-15352
17927,9734,-16376
18695,10502,-16632
20487,12294,-16632
20743,13318,-16120
22023,13830,-15864
22279,13574,-15608
22279,13574,-14840
21767,13062,-14072
21255,12294,-14072
20487,11782,-14072
20231,11270,-14328
19719,11014,-14072
19207,9990,-14072
18695,9478,-14328
18439,9734,-13560
18183,9222,-13048
17415,8454,-13048
16391,7686,-13304
16391,7430,-13304
16135,7430,-13560
15367,6918,-13560
15367,6918,-13560
15111,7174,-13816
15111,6662,-13560
16135,6406,-13560
16135,6406,-13816
15623,6662,-13816
15111,6662,-13560
15367,6150,-14072
15367,6406,-14328
15623,6406,-14328
15111,6150,-14584
15111,6150,-14584
15111,6406,-14328
15367,6662,-14072
15111,6662,-14072
15367,8198,-14840
15623,9222,-15096
15623,9478,-13560
15623,10246,-12024
15111,10246,-12024
15111,10246,-12024
14599,9734,-12024
14343,9222,-12536
14599,9222,-14328
14855,9222,-16376
13831,8966,-16632
12807,8710,-16632
12807,7942,-17144
12551,6918,-17144
11783,5126,-16632
11015,4358,-15352
11015,2822,-14840
11015,2822,-14840
9991,2054,-14584
9223,1542,-14584
8711,1542,-13816
8455,518,-13816
7175,-1786,-14073
5639,-3322,-14073
4871,-4090,-13305
5127,-5114,-12537
4871,-6138,-12537
4615,-7418,-13305
4615,-7930,-13305
4615,-7930,-13049
4615,-8954,-12537
3335,-10746,-12793
3079,-11002,-12793
3079,-11002,-13305
3335,-11002,-13049
3335,-11002,-13049
2567,-11770,-12793
2567,-11770,-12537
2311,-12026,-12537
2823,-12026,-13305
2823,-11770,-13561
2823,-12282,-13305
2823,-12538,-13049
2055,-12538,-13305
2055,-11770,-13049
2311,-11770,-13305
2823,-11514,-13561
3335,-11258,-13561
3591,-10746,-14073
3847,-10234,-14073
4103,-9466,-14073
4359,-9210,-14585
4615,-8698,-14841
4871,-8442,-14329
5127,-8186,-14073
5127,-8186,-13817
5895,-7418,-13049
6407,-5370,-12025
6663,-2554,-11001
8455,1030,-11256
10503,6150,-14072
12807,12550,-22520
14087,20998,28168
14855,32262,7432
16135,-17402,-18168
17158,-11770,-26872
21254,28678,-10231
24069,-7162,32009
26629,25094,14602
28933,-8186,2570
29189,17926,-2549
27396,27142,1547
25861,21766,15371
23557,1542,-30197
20741,-29178,-7414
16389,4358,17418
13318,-27642,-23287
11526,5126,-247
10758,-24826,20232
10503,16390,-29432
11527,774,-18168
12295,-6906,-11257
12551,-11514,-8697
12807,-15354,-6905
12807,-17402,-4601
12551,-19450,-2041
12551,-21242,-1273
12807,-23290,-1273
13063,-24570,-505
13063,-25338,775
12808,-25594,1031
13064,-27642,1543
13064,-29434,1543
13064,-30202,2823
12552,-31226,3847
11272,32518,4103
11272,30982,5127
11272,29702,6407
11016,28166,7175
10760,26630,7175
9736,24070,7687
9480,22534,8711
8968,21510,9479
8712,19718,9735
7944,17670,9735
7944,15878,10759
7432,14598,11527
6664,12294,12295
5640,9734,12295
5128,8198,13575
4872,6662,15111
4872,5382,15879
4872,3334,15623
4872,2566,16135
5640,2566,17671
6408,2822,17927
7688,2566,17927
7688,2566,18439
8200,1798,18951
9480,1286,19719
11016,2310,20231
11784,3846,19975
13832,6150,19463
16136,8710,19207
17928,11014,18695
19208,12806,17927
19976,14598,17927
20744,15878,17671
21000,16902,17671
21000,18182,17415
20232,19462,16135
18952,21254,14599
18440,22790,13575
17416,24838,12295
15880,27654,10247
15112,31238,7687
14856,-30970,4871
14856,-26874,1799
14600,-22266,-249
14599,-18170,-3321
14343,-17146,-4089
14599,-11258,-7161
14855,-7930,-8953
15111,-5370,-10745
14599,-3834,-12281
14343,-2042,-12793
14343,-762,-13561
14343,774,-14328
14599,1542,-15608
14855,2054,-15864
14343,2566,-16120
14087,3334,-16632
14087,3334,-17400
14343,3078,-17656
14343,3590,-17656
13831,3590,-17400
13575,3846,-18424
13831,3846,-18680
14087,3334,-18680
14087,3078,-18936
14087,3334,-18680
13575,3334,-18680
13575,3334,-18936
13319,3078,-18936
13063,3334,-18936
12807,2822,-18680
12295,2566,-19192
12039,2566,-19192
12039,2054,-19704
12039,1030,-19960
11271,518,-19960
11015,518,-19960
10503,6,-19448
10759,-1018,-19449
10247,-1786,-19449
9223,-2298,-19449
8967,-2298,-19705
8967,-3322,-19961
8455,-4346,-19961
7431,-4858,-19193
7175,-4858,-18937
6663,-6394,-18937
6151,-7162,-18681
5895,-7674,-18425
5127,-8442,-17913
4871,-8698,-17401
4871,-9978,-16633
3847,-11002,-16889
3079,-11514,-16889
2823,-12026,-16121
2567,-13050,-16121
1031,-14842,-15865
263,-15098,-16377
-505,-16123,-16633
-1529,-17659,-16121
-3065,-18939,-16121
-4089,-18939,-15609
-4601,-19451,-16377
-4857,-20219,-16889
-5369,-20731,-16889
-5881,-20987,-17145
-6137,-20987,-17401
-5881,-20731,-17913
-6137,-20731,-17913
-6649,-20987,-17657
-6393,-20731,-18169
-6649,-20475,-18425
-7161,-21755,-18681
-7417,-22523,-18425
-7673,-22523,-18425
-7929,-21243,-18937
-6905,-20475,-19193
-5369,-19451,-19449
-4601,-17915,-20217
-4345,-16891,-20729
-4089,-16379,-20985
-2553,-15611,-20985
-1785,-15099,-21241
-1785,-13563,-21241
-1273,-12539,-20985
-761,-12539,-20985
7,-12026,-20729
775,-11258,-20729
775,-10234,-21241
1543,-9722,-21753
2567,-9210,-21241
2567,-8954,-20985
3079,-8186,-20473
3335,-7930,-20729
3847,-7930,-20729
4359,-7674,-20985
4359,-7418,-20985
4871,-6394,-20985
5127,-5114,-20729
5383,-4346,-20473
5127,-3322,-19961
5383,-2810,-19705
5127,-2298,-18425
4359,-2298,-18425
3847,-2810,-18937
4103,-3066,-18937
4359,-3066,-21241
4359,-3578,-22009
3847,-4346,-22521
2567,-5882,-22777
1799,-7162,-23289
2055,-7930,-23289
1799,-8442,-23289
1031,-8698,-22521
775,-8186,-22265
2311,-6906,-22265
3079,-5626,-22521
2823,-5370,-22521
2567,-5370,-22777
3079,-5370,-22777
4103,-5114,-22777
3591,-6906,-22009
2567,-7930,-20985
2055,-8186,-20729
3079,-8186,-20729
3847,-8186,-20729
3847,-8442,-20473
3847,-8442,-20985
4103,-8186,-21753
4615,-7930,-21241
4615,-7674,-20473
4871,-8442,-20473
5127,-8698,-20473
5127,-8698,-21497
5895,-7674,-21753
5895,-7418,-20985
5639,-7674,-20985
5895,-7674,-21241
6151,-7930,-21241
5639,-7418,-21241
5127,-7162,-20473
5127,-7418,-20729
5383,-8186,-20729
5895,-8186,-20729
6151,-7930,-20985
5639,-7674,-20985
5639,-8186,-20729
5383,-8186,-20473
5383,-8186,-20473
5383,-7674,-20473
5127,-7418,-20729
4615,-7418,-21241
4615,-7418,-20729
4871,-7418,-20217
5895,-5882,-19193
5895,-4858,-18425
7431,1030,-18680
8967,4614,-23032
10759,9990,-31480
12039,17158,19208
12551,27910,-1784
13830,-22522,-27896
16902,-2810,8200
19974,21766,-19191
22277,-14586,23305
24325,17926,5642
26117,-15610,-6646
26116,9990,-10997
24836,19718,-6645
22532,13830,6667
19205,-6906,26890
15621,28422,-15350
11781,-2042,9737
7430,32262,-30967
4614,-1018,-7416
3334,-31738,13832
3079,8966,29704
3335,-6650,-24569
3847,-15354,-18169
4359,-19962,-15097
4615,-21242,-14585
4871,-25338,-11769
4615,-27386,-9465
4359,-29690,-7929
4103,-31738,-7161
4103,-32762,-6393
3847,31750,-5625
3335,29702,-4601
3079,28422,-4089
3079,28166,-4089
3335,27142,-3321
3335,26118,-2809
2823,24582,-2553
2311,23814,-2297
2055,23046,-1273
2055,22022,-249
2055,20230,263
2056,19462,519
1544,18694,1031
1032,17158,1287
776,15622,2055
1544,14598,2567
1800,13830,3591
1800,12806,5383
1544,10502,6151
1544,9734,6151
1288,8454,6919
1288,7430,7687
1288,5382,8199
1544,4102,8967
1288,3078,9991
1032,1542,11271
1288,-506,12294
1032,-2810,12806
520,-3834,13062
-248,-4859,13830
8,-5882,14854
8,-6906,15110
264,-6650,14854
776,-6394,14854
1288,-6138,15110
1288,-5626,15110
1544,-4602,14598
1544,-3578,13574
1800,-2298,13062
1800,-250,13062
2312,2566,11783
3080,5382,10503
3336,8198,8455
3336,11526,6919
3592,13062,6407
3592,19462,2311
3592,23558,-505
3847,27910,-2297
4103,32518,-4601
4103,-28666,-7161
4103,-24826,-9465
4359,-21498,-11513
4359,-18426,-12793
4103,-15098,-14329
4103,-12538,-16121
5127,-10490,-17657
5383,-8442,-18169
5639,-5882,-19193
5383,-4346,-19961
5127,-4346,-20473
5383,-3834,-20729
5127,-3066,-21241
4359,-3066,-22777
4359,-2810,-23033
4871,-2042,-22777
5383,-1530,-22777
5383,-1018,-22777
5639,-1274,-23289
5383,-1274,-24313
5127,-1018,-24057
4871,-506,-23801
5127,-250,-24569
5639,-250,-25081
5383,-250,-25081
5383,262,-24824
5383,774,-25080
6151,518,-25080
6151,774,-25080
6407,1286,-25080
6407,1286,-25080
6663,1286,-26104
6407,1030,-25848
6407,774,-25592
6407,774,-25848
6407,774,-26104
6663,1030,-26104
6407,518,-25848
6151,-506,-25337
6151,-506,-25081
6407,262,-24824
6407,262,-24312
6151,-250,-24313
5895,-506,-24057
5639,-762,-23289
5639,-762,-23289
5383,-1530,-23545
5383,-2042,-22777
5639,-2042,-22265
5383,-2042,-21497
5639,-2042,-21497
5639,-2810,-20985
6151,-3066,-20217
6151,-3066,-20217
5639,-2810,-20217
5383,-2554,-20985
5639,-2810,-21241
5639,-3066,-21241
5383,-2810,-20729
5383,-2810,-20473
5127,-3066,-20473
5383,-3066,-20729
5383,-2810,-21241
5127,-2298,-21497
5127,-2554,-21497
5383,-2554,-21241
5127,-2298,-21753
4871,-2042,-21753
5383,-2042,-22521
5639,-2042,-22521
5383,-2298,-22265
4615,-2298,-22265
4615,-2042,-22521
4615,-2042,-22521
5127,-2298,-22521
5383,-2810,-22265
4871,-3322,-22521
4359,-3322,-23033
4615,-3066,-22777
4871,-3066,-22777
4359,-3066,-22521
4359,-3066,-22521
4615,-3322,-22265
4359,-3066,-22265
4615,-3578,-22777
4615,-3834,-23033
4103,-3834,-23033
4103,-3578,-22777
4359,-3066,-22521
4615,-3322,-22521
4871,-2810,-22521
5639,-1786,-22265
5895,-506,-22265
5895,6,-22008
5639,1030,-21752
5383,1286,-21240
4615,2054,-20728
4359,2310,-20728
5127,1798,-21240
6151,1798,-22776
6407,2310,-24056
6151,3078,-25848
5895,3334,-26616
5895,3078,-26616
5895,2054,-26616
5895,1798,-26104
5639,1030,-25080
4871,-506,-24825
5127,-1018,-24569
5127,-762,-24057
4359,-762,-24313
3847,-1274,-24313
3591,-2554,-24569
3079,-3322,-24313
2311,-4090,-23801
1287,-5626,-23289
519,-6906,-23033
775,-7162,-22777
775,-7418,-22521
775,-8186,-22265
519,-8442,-22265
519,-8698,-22521
1031,-8954,-22521
775,-8954,-22265
519,-8698,-22265
775,-8698,-22521
1031,-9466,-22265
775,-9466,-22265
519,-9466,-22265
519,-9722,-22521
519,-9978,-22521
775,-9978,-22265
775,-9466,-22265
775,-9210,-22521
1031,-9210,-22521
1287,-9466,-22009
1543,-9466,-22265
1287,-9210,-22521
1287,-8954,-22265
1287,-8954,-22521
1543,-8954,-22265
1543,-8442,-22265
1543,-8442,-22521
1799,-8442,-22521
1799,-8442,-22265
1799,-8442,-22265
1543,-8442,-21753
1799,-8186,-20729
2055,-5370,-19705
3079,-2554,-18937
4871,774,-19960
6407,4614,-25080
7687,10246,30728
9223,18182,14088
10503,28678,-7416
12806,-21242,31496
15622,-506,2312
18438,25350,-25335
21765,-10490,18697
24069,22022,2058
24325,-12026,-8182
23556,11270,-11253
22020,15622,-4597
18948,6150,10507
15109,-16122,32266
11781,19718,-8950
7941,-11258,15881
3846,22022,-25079
518,-10234,-2040
6,26630,17928
7,17926,23304
-249,-10491,-23033
7,-17146,-16889
1031,-20474,-14585
1799,-23802,-12793
1543,-26618,-10489
775,-28410,-8441
775,-30202,-6905
775,-31738,-6649
519,32262,-5881
-249,30469,-5113
-505,29957,-4345
-505,28421,-4345
-761,26885,-3833
-505,26117,-2809
-505,25349,-1273
-1273,23813,-1017
-1785,22533,-1017
-1785,22021,-505
-1273,21253,-249
-1529,19973,-249
-1529,18693,263
-1528,17669,1287
-1528,16901,2055
-1528,15365,2567
-1528,14341,2823
-1016,12549,4359
-1016,12037,4871
-760,11013,5383
-760,8965,6407
-1016,7685,7175
-1016,6917,7687
-1016,5381,8455
-1528,3845,9479
-2040,1797,10503
-2296,773,11271
-1784,5,12295
-1272,-1275,13318
-1272,-3067,14342
-1016,-3835,14854
-1528,-4347,15366
-1528,-5115,15622
-1272,-6139,16134
-1016,-5883,16134
-1272,-5883,16390
-1272,-5627,16134
-760,-4347,16134
-504,-3323,15622
-248,-2043,13830
-760,-507,13062
-1016,261,13063
-1016,4869,11527
-760,8197,9735
-248,11525,6663
-504,15621,5127
-504,19461,3591
264,24070,1031
520,28166,-2297
519,32518,-5369
519,-29178,-6137
519,-25338,-8441
775,-21754,-11257
1287,-19450,-12793
1543,-16890,-13305
1287,-14330,-14329
775,-12282,-16121
1031,-10746,-18169
1031,-9210,-18169
519,-7674,-18681
263,-7162,-19705
263,-6650,-20729
519,-5882,-20729
775,-5626,-20729
775,-5370,-20985
519,-5114,-22265
519,-5114,-22265
7,-4602,-22265
7,-4602,-22265
7,-4602,-22521
519,-4602,-22521
1031,-4346,-22265
1031,-4090,-22521
519,-4090,-22521
7,-3834,-22777
263,-3834,-23289
775,-3578,-23545
775,-3066,-23545
775,-3322,-23801
1287,-3322,-23545
1287,-2810,-23545
1543,-2810,-23545
1287,-2810,-23289
775,-2554,-23545
775,-3066,-24057
1031,-3834,-23801
775,-3322,-23801
1031,-3322,-24057
1287,-3066,-23545
1287,-3066,-22777
1031,-3066,-22521
1031,-3066,-22521
1287,-3578,-22521
1287,-3834,-22521
1031,-3834,-22009
1543,-4090,-21497
1799,-4090,-20729
1799,-4090,-20729
1543,-3834,-20473
1543,-4858,-19705
2311,-5114,-19705
2823,-5114,-19449
2567,-4858,-19449
2823,-4858,-19193
3079,-4858,-18937
2055,-5114,-18937
1799,-5114,-18681
1799,-5370,-18681
2567,-5114,-18681
2567,-4090,-18937
2311,-3834,-19449
2823,-4090,-19193
3079,-4346,-19193
3335,-3834,-19449
3335,-4090,-19449
2823,-3322,-19193
2567,-3322,-19193
2311,-3322,-19449
2823,-2810,-19449
3591,-2810,-19705
3847,-3066,-19449
3335,-3066,-19449
3079,-3066,-19705
3335,-2810,-19961
3847,-2554,-19961
3591,-2810,-19705
3591,-2554,-19705
3847,-2298,-19705
3847,-2298,-19961
3847,-2298,-19961
3335,-2554,-19705
3591,-2810,-19449
3591,-2810,-19961
3591,-2554,-19961
4103,-2554,-19961
4359,-2810,-19961
4359,-2042,-20217
4359,-1530,-19449
4103,-1786,-19449
4359,-1786,-19193
4359,-1018,-19705
4615,-762,-19449
4359,774,-19704
4359,1798,-19704
5127,2822,-17912
5383,2822,-16888
5127,3590,-16632
5127,3846,-16888
5639,4102,-17912
6919,5126,-19704
6919,5638,-21240
6919,6406,-22264
6919,6406,-22520
6919,6150,-23544
7431,5382,-23544
7687,4102,-22520
7431,3334,-20728
6663,3078,-19704
6407,3078,-20216
6151,2822,-20472
6151,2822,-19960
6151,2566,-19192
5895,1798,-19192
5383,262,-19704
4615,-1018,-19961
4103,-2042,-18681
3591,-2042,-17913
3591,-3322,-17401
3335,-3834,-17913
3335,-4346,-18169
3591,-4090,-18169
3847,-3834,-17401
3847,-4346,-17401
3335,-4346,-17401
3591,-4090,-17145
4103,-4346,-17657
4871,-4858,-18169
5127,-4858,-18169
4615,-4602,-17913
4359,-4602,-17657
4103,-4858,-17657
4359,-4858,-17913
4359,-4602,-18425
4103,-4602,-18169
4103,-4858,-18169
5127,-4858,-18425
4871,-4346,-18425
4871,-3834,-18169
4615,-3834,-18169
4871,-4090,-17913
5127,-4346,-18169
4615,-4602,-18169
4103,-4346,-18169
4359,-4090,-18169
4871,-4090,-18425
5127,-4090,-18681
5383,-3834,-17657
5127,-3066,-16633
5383,-1018,-15353
5639,2822,-15096
7687,6662,-15352
9479,11526,-20472
11271,17926,-30968
12039,26886,17416
12807,-26874,-4344
14598,-10746,-30200
17414,10758,6921
19974,-29434,-19959
22277,518,24842
24581,31750,9994
25861,-5114,1290
24581,12806,267
22533,12806,9227
19717,-1274,26122
16901,-26362,-16374
13317,7686,7690
11270,-2298,14857
5126,11270,-10487
3846,-18170,11272
3847,22278,28168
3847,3334,-25080
4359,-7418,-16633
4871,-12282,-12025
5639,-15354,-9977
5639,-18938,-8441
5127,-20986,-6649
5383,-22522,-5113
5383,-24314,-4089
5383,-26362,-3577
5639,-27898,-2809
4615,-28666,-1529
4359,-29690,-1017
4615,-31226,-761
4615,-32250,-505
4359,32262,7
4104,31494,1031
4104,30214,775
3848,28934,775
3848,28678,1799
3592,27398,3079
3848,26374,3335
4360,25862,3335
4360,23814,3591
4360,23814,4359
4104,22790,4615
4104,21254,5639
4616,20486,6407
4616,19462,6151
4616,16902,6919
4360,14854,7943
3848,13318,8455
3592,12806,9479
3848,11782,10247
3848,9222,11527
3848,7942,12807
3848,7686,13319
3848,5894,13831
3336,3590,14599
3336,2566,15367
3336,2054,16647
3336,774,16903
3592,-506,17414
3592,-1274,17670
3592,-1530,18182
3592,-1530,18438
2824,-1786,18182
2824,-1786,18182
2568,262,16903
3080,2054,15623
3592,4870,15111
3592,7174,14087
3592,9478,12295
3592,12806,10247
3848,16390,8967
4104,19974,7943
4104,23558,5383
4104,27910,2055
4104,-32250,7
4360,-28410,-1529
4359,-24826,-4345
4615,-20986,-6905
4615,-17658,-8185
4359,-14842,-9465
4103,-12282,-9977
4359,-10234,-12025
4359,-8186,-13561
4615,-6138,-13561
4359,-5114,-14329
4871,-4090,-15609
5127,-2810,-16121
5127,-2298,-16121
5127,-2042,-16377
4359,-2042,-16633
4103,-1786,-16889
4615,-1018,-16889
5639,6,-17912
5639,-250,-18169
5639,-506,-18169
5895,-506,-18169
5639,518,-17912
5639,2310,-18680
5895,6662,-21240
6919,13062,-24056
7687,20486,-26616
8199,28934,-29688
8967,-26618,-32504
9223,-16122,31496
9223,-3834,31496
7175,9734,32009
2055,17158,-30711
-5369,16645,-23799
-13817,6149,-13559
-21753,-19963,1032
-30712,11269,17160
26376,-21755,-32761
21256,14085,-18425
20232,4613,-14073
19464,-24571,2566
20233,31493,7942
23049,24837,11014
27145,21509,12038
30985,21509,11782
-31735,26117,9734
-28663,32261,7942
-26103,-27387,7942
-24311,-21243,8454
-23799,-12283,8454
-22007,-1531,7174
-17911,9221,2823
-13559,18437,-7673
-10488,27653,-22521
-8184,-30203,26631
-4088,-25083,11015
264,-22266,-2297
3335,-19194,-11769
5639,-15354,-17401
8455,-12538,-21241
11015,-11770,-23801
11271,-11002,-26361
11015,-9722,-27129
11271,-9210,-27385
12295,-9466,-27897
13319,-9466,-29689
12807,-9466,-30457
12807,-8442,-31225
13063,-7930,-31737
13575,-8186,32519
13831,-7930,32007
14343,-7674,31751
14343,-6650,31239
14599,-6394,30215
14855,-6138,28935
15367,-4858,27911
15879,-3834,27143
16391,-3066,25863
17159,-2298,24327
17159,-1274,23815
17927,1542,22536
18695,2822,21000
19463,3078,19208
20231,4870,17416
20231,7174,16136
20999,9990,14344
21767,11270,11784
22791,13574,9736
23303,16134,8712
23559,17414,7944
25095,20742,4616
25607,22790,2568
26375,26886,1288
27399,30726,-248
27910,-32506,-1016
28678,-30458,-1016
28678,-28410,-248
28422,-26874,8
28167,-26106,-248
28166,-25082,-1016
28422,-23290,-2296
28934,-22522,-4088
28934,-22522,-4856
27910,-23290,-4856
26630,-24826,-3576
25862,-27386,-1528
25350,-29690,1288
23559,32518,4872
22535,30470,7944
22279,28422,11784
21767,26118,14088
20231,24070,17160
17927,21510,19464
16903,19206,22536
16903,18182,23560
13831,13318,27656
12039,11014,30472
11271,9478,-31992
11015,7174,-29688
10247,4358,-27896
8711,3078,-26616
7687,2310,-24824
7943,1798,-23544
7687,1030,-22776
6919,262,-22520
6663,262,-20984
6919,6,-20728
6919,6,-20216
6919,6,-19704
6919,6,-19448
6407,6,-19704
5895,774,-19704
5639,774,-19704
5639,518,-19704
5639,262,-19192
5639,774,-19192
5639,1030,-18936
6407,1798,-19192
6151,1798,-19960
6151,2054,-20472
5895,1798,-19960
5895,1798,-20216
6407,2054,-20216
6407,2310,-20728
6151,2310,-21496
6407,2566,-21496
6151,2054,-21240
6151,1798,-20728
6151,2054,-20728
6151,2054,-20984
5895,1286,-20728
5895,1286,-20728
6151,1542,-20472
6663,1286,-20472
6407,518,-20216
6151,-250,-20217
6407,-506,-19961
6151,-506,-19961
5895,-250,-19705
6151,-250,-19705
6407,-1274,-19705
6407,-1530,-19193
6407,-1786,-18681
6151,-1530,-18425
6407,-2042,-18425
5639,-2810,-18169
5895,-3066,-17913
5383,-3322,-17913
5639,-2810,-17657
5383,-3066,-17657
4871,-3834,-17657
4615,-3834,-17401
4359,-4090,-17401
4615,-4346,-17401
4615,-4858,-17145
3847,-4602,-17145
3847,-4602,-16889
3847,-4858,-16633
3847,-5370,-16633
3591,-5370,-16889
3591,-5370,-16889
3079,-6138,-16889
3079,-5882,-15609
2567,-5882,-15609
2567,-6394,-16121
2311,-6906,-16889
2055,-7418,-16377
1287,-7418,-16377
1287,-7162,-15865
1543,-7162,-15609
1287,-7418,-15865
1287,-7418,-15865
1287,-7162,-15609
1287,-7162,-15353
1031,-7418,-15353
1287,-7674,-15353
1287,-7674,-15097
1031,-7674,-15097
775,-7930,-15353
775,-7930,-15353
1031,-7674,-15353
1031,-7674,-15609
775,-7930,-15353
263,-7930,-15353
263,-7930,-15353
263,-8186,-15609
7,-7930,-15353
7,-7930,-15353
7,-8186,-15609
263,-8698,-15865
263,-8442,-15865
519,-8442,-15353
519,-8442,-15609
263,-8698,-15609
263,-9210,-15865
263,-9210,-15865
263,-9210,-16121
-249,-9211,-15097
-505,-9979,-15097
-761,-10747,-15353
-761,-10747,-15353
-505,-10747,-15097
-761,-10747,-15097
-1017,-10747,-15353
-1273,-10747,-15865
-1273,-10747,-15865
-1529,-10491,-16121
-1529,-10491,-16121
-1529,-10491,-15353
-1785,-10235,-15609
-2041,-10491,-15609
-1273,-9979,-15353
-1017,-9723,-15097
-1017,-9979,-15609
-1017,-9979,-15865
-505,-9979,-15865
-249,-9467,-15865
-249,-9467,-16121
-761,-9723,-16121
-761,-9979,-15865
-761,-9723,-15353
-1017,-9211,-15353
-505,-8955,-15353
7,-8954,-15353
-249,-8699,-15353
-249,-8443,-15609
263,-8442,-15865
263,-8954,-16121
7,-8698,-16377
7,-8698,-16121
263,-8954,-16377
263,-8698,-16377
263,-8442,-15609
519,-8442,-15609
263,-8442,-15353
263,-8698,-15865
519,-8698,-15865
1031,-8442,-15865
775,-8186,-15097
775,-8186,-14841
775,-7930,-15353
775,-8442,-15865
775,-8954,-15609
775,-8698,-15353
519,-8442,-15353
519,-7930,-15353
1031,-8186,-15097
1287,-8186,-15609
1287,-7930,-15865
775,-7930,-15865
263,-7930,-15865
519,-8698,-16121
519,-8954,-16121
263,-8186,-16377
775,-7930,-16121
775,-7930,-16889
519,-8442,-16889
519,-8698,-16889
775,-8698,-16633
519,-8442,-16633
519,-8442,-17145
775,-8186,-17401
1031,-8186,-17401
775,-7930,-16889
775,-7674,-16889
1799,-7674,-16633
1799,-7418,-17401
1799,-7418,-17401
1287,-7162,-17401
1031,-7418,-17401
1031,-7674,-16889
1799,-7418,-16889
1799,-7162,-17145
1543,-6906,-17401
1543,-6906,-16889
1543,-6650,-16889
1799,-6650,-17401
1799,-6650,-17657
1543,-6650,-17657
1543,-6650,-17913
2311,-6650,-17913
2567,-6394,-17657
2567,-6138,-17657
2567,-5882,-17657
2823,-5626,-18169
2823,-5626,-18425
2567,-5882,-18169
3079,-6138,-17913
3335,-5626,-17913
3591,-5626,-17913
3591,-5626,-18169
3847,-5626,-17913
3591,-5626,-17913
3591,-5370,-17913
3335,-5626,-18681
3591,-5626,-18425
3335,-5114,-18681
3335,-5370,-18681
3591,-5626,-18425
3079,-5626,-18425
3079,-5370,-18681
3079,-4858,-18681
3335,-4602,-18169
4359,-4602,-17913
4615,-3322,-18681
4615,-1786,-18681
5127,-762,-18937
5639,262,-18680
5383,1030,-17144
5383,1542,-16120
5639,1542,-15864
5639,1286,-17144
5895,1542,-18936
5895,2822,-19704
6919,2822,-20472
7175,3078,-21752
6663,3078,-22520
5895,2054,-22776
5383,774,-21496
5383,6,-20984
5383,-762,-20473
5127,-762,-20729
5383,-506,-20217
5127,-506,-19449
4103,-762,-19961
3591,-1530,-20217
2567,-3066,-20217
2055,-4602,-19705
1799,-5114,-18425
1287,-5626,-18169
1031,-6650,-18169
775,-7418,-18425
1031,-7674,-17657
1031,-7930,-17657
1031,-7930,-17913
1287,-8186,-17913
1543,-8698,-17913
1031,-8954,-17913
1031,-8954,-17657
1031,-8954,-17913
775,-8698,-17913
1031,-8698,-17657
1287,-8954,-17657
1287,-8954,-18425
775,-8698,-18425
1031,-8698,-18169
775,-8954,-18169
519,-8954,-18425
519,-9210,-18681
775,-9210,-18681
519,-9466,-18425
-249,-9467,-18425
7,-8698,-18937
519,-8698,-19193
519,-8954,-19449
519,-8698,-18681
519,-7930,-18425
775,-6650,-17657
2055,-4346,-16889
3079,-1018,-17145
4615,3846,-19448
6151,9478,-26616
7687,15878,26888
8711,25094,8456
9479,-26874,-14840
11782,-9210,22024
14854,13830,-8695
17925,-23802,30729
19973,7686,11530
20997,17926,5642
22277,1286,-8949
21508,16390,-5365
18692,14598,7691
15621,-1786,26378
13317,-30202,-17398
10501,4614,5386
6150,-26106,29449
2054,7174,-12535
-506,-24059,8200
-249,15365,26120
-249,-3323,-25337
-249,-14331,-16889
7,-19962,-13049
7,-24314,-11513
7,-27642,-8953
-249,-29947,-6393
-505,-32507,-5369
-1273,30469,-4857
-1273,28933,-3833
-1017,28165,-2041
-1273,26885,-1273
-2041,24581,-1529
-2297,23557,-1017
-2297,23557,263
-2296,23045,263
-2296,20997,263
-2552,20485,519
-2296,20229,1287
-1784,19461,2311
-1528,17925,3079
-2296,16389,2823
-2296,15877,2823
-2040,15621,3847
-2040,14597,4615
-1528,13317,5127
-1272,13317,4871
-1016,12805,5383
-1016,11525,6407
-1784,9733,6919
-1784,8965,6919
-1784,8965,7687
-1784,8197,9223
-1784,6661,9479
-1784,6149,9479
-1784,6149,9479
-2040,5125,10247
-2296,3845,11271
-2296,2821,12039
-2040,2565,12551
-2040,2309,12295
-2296,261,14087
-2040,-251,15366
-2040,-507,15366
-2040,-763,15366
-1784,-1531,15110
-1784,-1787,15366
-1528,-1787,15366
-1272,-1275,15622
-1528,-1019,15366
-1528,-1019,14854
-1528,-251,14086
-1528,1029,13575
-1016,2053,13063
-760,3333,12039
-760,5125,10759
-760,7429,9223
-760,9733,7943
