6152,-16123,4871
6152,-14075,3079
6408,-12539,1031
6920,-11515,-1017
6919,-9467,-2297
6919,-7163,-3577
6663,-6139,-5881
6919,-5883,-7417
5639,-4091,-10233
4103,-3067,-11513
4359,-2299,-13817
5639,-1275,-15609
5127,-763,-16633
4615,5,-17656
3847,517,-19448
2567,517,-21240
2567,773,-21752
3591,517,-21752
3591,773,-21752
3591,517,-20984
3335,-763,-18937
3079,-1531,-15609
4871,-3067,-11257
7687,-4091,-6137
7943,-6395,-761
7687,-9723,4615
7944,-12283,9991
8712,-14843,14855
9736,-17403,19207
9736,-20987,22791
8968,-23803,25863
7944,-25595,27399
7944,-26107,27911
7944,-28923,30215
7944,-31227,30471
7176,-31739,31495
6664,32517,31495
6920,31493,32007
7176,30725,32519
6408,30213,32263
6152,29445,32519
5640,29189,32263
4104,28421,-32505
3848,28165,-32505
5384,28421,-31993
5640,28421,-32249
4872,28677,-31481
4616,28677,-31737
4104,28421,-31481
4872,28677,-31481
5128,28933,-31737
4360,28933,-32249
2312,28933,-32761
2056,29189,32007
2568,28933,31495
2312,28677,30727
3080,28933,30471
3080,29189,30471
2824,29189,28935
2824,29445,28167
3080,29445,27143
3080,29189,26631
2824,29445,25607
2824,29445,24583
2824,29701,23815
3336,29957,23559
3080,29957,22791
2568,29701,21511
2056,29701,20743
2312,30213,20743
2568,30469,19975
3336,30725,19207
3080,30469,18695
2312,30725,18183
2056,30981,17927
1544,30213,16903
1544,29701,16135
2312,29957,16135
2824,30469,16135
2824,30469,16135
2312,30469,15879
1800,30725,15367
1544,30981,15367
1800,30981,15367
2312,30725,14855
2312,30725,14855
1032,30725,14343
1288,29957,13831
1288,29957,13575
1800,30213,13319
2056,30469,13575
2056,30725,13319
1800,30469,13319
1800,30213,13319
1800,30469,13319
2056,30725,13319
2056,30981,13319
1800,30981,12807
1800,30469,12807
2568,30213,13063
2568,30725,13063
2312,31237,12807
1800,31237,12807
2056,30725,12807
3080,30725,12807
3592,30981,13063
2568,31237,13063
2056,31237,13063
1544,30469,12295
1544,29701,11783
2568,30469,12807
2824,31237,13319
2824,30981,13063
2312,30725,12551
2056,30725,12551
2824,31237,12551
2824,31493,12807
2824,31237,13063
2824,31493,13063
2056,31237,12551
2056,31493,12551
2312,31237,12551
2312,31493,12295
3080,31749,12295
3080,32261,12807
2824,32005,13063
2568,32005,13063
2568,32005,12807
2824,32261,13063
3592,32005,13319
3336,32261,13575
3080,32005,13575
3336,31749,13575
3592,31749,13831
3592,31749,13575
3336,32005,12807
3592,-32763,12807
4360,-32763,13063
5128,32517,13575
4360,-32763,13831
4104,-32507,13319
3080,-32763,12807
2824,-32763,12551
3848,-31227,13319
4616,-29691,14343
6152,-29179,14343
7432,-28923,14599
7688,-28155,14855
8968,-26619,15367
11016,-25851,16903
13064,-25083,17927
14600,-22267,18183
17672,-18683,19719
21512,-16635,21511
23304,-16635,22279
22792,-17915,22023
20232,-19963,21511
19208,-20987,21255
19464,-23547,20231
17928,-24571,19719
13064,-26363,18695
6664,-28411,17927
2824,-30203,17415
1800,-30715,16391
1288,-30971,15367
1032,-31227,15111
776,-32507,14855
1032,-32763,14599
1032,-32507,14087
776,-32251,13831
1032,-32763,13831
1544,32517,13831
1288,32517,13831
520,31749,15623
520,29957,20487
10248,29445,30215
-25592,-25851,-12537
8456,2054,19976
-26871,-18938,-13304
5385,-24313,5641
6666,-30713,4362
-4086,-31995,-24822
28937,20485,27146
-30711,1795,10760
32264,16387,-14841
-9465,-7677,-29178
13063,-20476,27654
29447,-20988,26374
-19449,-6908,30982
-5113,9988,-26873
1287,20485,-20985
3847,26373,-16377
4871,29189,-12281
5895,31749,-8441
5895,-31483,-5369
5383,-30459,-3577
5127,-30203,-2297
7175,-28667,-249
7943,-26619,775
8456,-25339,1031
8712,-24827,775
8968,-23291,519
10248,-20987,519
10760,-18939,775
11272,-17659,263
11272,-16379,-2041
11783,-13563,-3321
12039,-12027,-3577
11783,-9467,-4857
13063,-7675,-5369
13831,-4859,-7417
13831,-1531,-9209
13831,261,-9464
14087,1029,-10744
14855,3333,-12280
15367,6149,-13560
15623,7173,-14072
14855,8197,-15608
13575,9477,-18168
12551,11525,-19192
13319,12549,-19704
13575,12549,-20216
14343,13317,-22520
14343,14853,-24568
14087,15365,-25336
14087,15365,-25592
14087,15365,-27640
14599,15621,-29688
14343,15365,-29944
13063,14853,-30200
12807,15109,-30456
13063,14597,-30200
13575,13829,-30200
14087,11269,-27896
14087,10245,-25080
14087,8709,-22008
14343,5893,-18168
15367,3333,-13816
14343,261,-9464
13319,-2299,-4345
13063,-5627,519
11528,-8699,4615
11528,-10747,9479
11784,-12539,13831
11016,-15867,17415
9736,-18171,20231
8712,-19451,22535
8712,-20731,24327
8200,-22779,25607
6920,-24315,26375
5640,-25339,26887
5384,-26619,27655
5384,-27387,27655
5128,-28667,27911
4872,-29179,28167
4872,-29179,28679
5128,-29435,29191
4872,-29947,29447
4360,-29947,29959
4360,-29947,30215
4616,-30459,30727
5128,-30971,30471
4360,-30971,30471
4104,-30971,30983
3848,-30971,31751
4104,-31483,31751
4104,-31995,31495
4104,-31995,31495
3848,-31995,31495
3848,-30971,30983
4872,-30971,30983
4616,-30715,29703
3592,-30715,29191
3080,-30971,28167
2824,-31739,27911
2824,-31483,27143
3848,-30971,26375
4104,-30203,25863
4360,-28923,25607
5128,-27643,25095
6920,-27387,25095
8200,-26107,24583
8200,-25083,24583
9992,-22267,24327
11272,-21243,24583
13576,-19195,25095
16136,-15867,26887
18440,-13307,26887
20488,-13051,26887
20488,-15099,25863
19208,-17147,24583
18184,-17659,23815
15880,-19707,22791
12296,-22779,22023
5896,-26107,20743
776,-28411,19207
-504,-29180,18183
8,-29691,17415
-248,-30972,15879
-504,-31740,14855
-504,-31484,14343
-760,-31740,14087
-760,-31740,13831
-504,-31740,13319
-504,-31996,12807
-1016,-32252,12807
-1528,-32764,12295
-1784,32516,11527
-1784,-32764,11527
-1272,-32764,13063
-1272,32004,18695
8968,-32507,28935
-30200,-23291,-16633
1800,4614,15368
-31479,-18938,-14584
3337,-30457,8969
7946,20743,13322
-1526,26117,-16374
26121,-30204,-3575
29960,17155,14088
22792,27139,-15353
-20985,-2045,32518
2823,-20476,21766
19207,-31228,15622
30727,-23292,17158
-22009,-3836,23814
-7417,13828,-32761
2055,23045,-25337
5383,27653,-21241
5895,31237,-16889
6919,-30203,-11769
6663,-28155,-8441
6407,-28411,-8185
7943,-26363,-5625
8711,-24315,-4089
9223,-22011,-1529
10503,-21243,-1017
10759,-20731,-1785
10759,-17915,-1785
11783,-14843,-2041
12295,-13307,-2553
13063,-12795,-3577
14855,-9467,-4601
15879,-5627,-5881
16135,-3835,-6649
16647,-2043,-8185
17159,773,-9720
18695,4357,-11256
19207,6917,-11768
18695,7685,-13560
18695,8709,-15864
17159,11781,-17656
16903,14085,-18936
16903,13829,-20472
17671,14597,-22776
17671,16389,-24312
16903,17157,-26104
16903,17157,-26616
17159,16389,-29688
16647,16645,-30968
16135,16645,-31480
15879,15621,-31736
16135,13829,-31736
16135,12293,-30968
16391,11269,-27896
16647,8965,-24824
16135,5637,-21496
15623,2565,-17656
15367,517,-12280
15367,-2555,-6649
14855,-6395,-2553
12807,-9723,775
11528,-11771,5639
10504,-14331,9735
9480,-17915,12039
9480,-20475,14343
8456,-21243,16647
7688,-23035,18951
7688,-25339,19719
6152,-27131,19975
5128,-27387,20487
5128,-27643,21767
5384,-28411,21767
5128,-29435,22023
4616,-30203,21511
3848,-30203,21767
3592,-30459,21767
3848,-30715,22791
6152,-29435,25351
9224,-26363,28167
12040,-21499,31751
10504,-14843,-28409
1544,-3579,-20729
-13816,11524,-10744
-31992,29956,1288
15369,-17148,14600
-3063,-253,27144
-22007,15107,-26871
28425,29443,-15607
21513,-18941,-3575
21001,5123,5642
24074,-28413,8202
28938,1027,7435
-30198,11267,2571
-22262,10755,-7413
-9975,10755,-29685
4105,11012,-8693
9224,10500,-25589
26632,10756,30731
28935,-4604,12810
-26617,-4604,14601
-2809,-11772,23560
20999,7941,32264
-31993,-17659,-25849
-28665,-32763,-20217
-27129,21509,-15865
-24057,11781,-12537
-22521,4357,-10233
-20985,-2043,-7930
-18425,-7163,-7162
-17657,-11259,-6650
-15865,-12283,-5114
-16633,-12283,-3834
-19193,-12795,-2554
-21753,-15099,-2298
-23801,-17659,-2298
-24825,-18683,-2554
-24825,-18939,-2554
-23545,-19963,-2554
-22521,-20987,-3066
-21753,-20731,-3578
-21497,-19707,-3834
-22009,-18939,-4090
-22265,-17915,-4602
-22265,-17403,-5370
-21753,-15355,-5882
-21241,-13307,-6650
-21497,-12539,-7930
-22265,-12027,-8698
-23033,-9979,-9978
-22777,-9211,-10746
-22265,-8699,-11258
-22265,-8955,-12026
-22265,-7931,-13050
-22521,-5883,-13562
-23545,-5371,-13562
-24313,-5115,-13818
-25081,-2811,-13562
-26617,5,-12281
-28921,2565,-10233
32519,4869,-8441
29191,8453,-6137
27399,13317,-2553
25095,17669,1543
21768,20485,4871
18952,23045,7943
16904,25605,11271
15624,27141,12807
12808,29445,17671
12040,29957,19463
10248,30725,20999
9224,31237,23047
9224,30981,24583
8712,30469,24583
7688,30469,24583
7688,30469,25607
6408,30213,26631
6408,29957,26887
6664,29701,26887
6408,29445,26887
6152,28933,26887
6408,28933,26887
5128,29189,26887
4360,28421,26119
5384,28421,26119
6152,28933,26887
6408,28933,27143
5896,28933,26887
5128,28677,26631
5128,28421,26887
5640,29189,26375
5640,29445,26119
5128,29445,26119
3848,28677,26119
3080,28677,25607
3848,28677,25095
4360,28421,25095
4104,28421,25351
3848,28677,25095
3848,29445,24071
4616,29189,23815
4360,29189,23815
4104,29189,23559
4360,29701,22535
3080,30213,22023
3336,30213,21767
3592,30469,21255
3336,30981,20231
3080,31749,19975
3336,31493,20231
3336,31493,19719
3592,32517,18695
3592,-31995,17927
3080,-32251,17671
3336,-32507,17671
2824,-32251,16391
2056,-32507,15111
2056,-32507,14855
2312,-30715,15111
2312,-30715,14599
3080,-30459,14855
3080,-30971,14087
2312,-30971,13319
2312,-30459,13063
2312,-30203,13063
2312,-29947,12295
2568,-29947,11527
1800,-29947,11015
1288,-30459,10759
2056,-30203,10759
2824,-30459,10759
2824,-30203,10759
2056,-29691,10759
1544,-29435,10503
1800,-29179,9735
3336,-29179,9991
3592,-29179,9735
2568,-29435,9735
1800,-29691,9223
2312,-29947,8967
2824,-28923,8711
2824,-28667,8711
2056,-28923,8711
2312,-28923,8711
2056,-28155,8711
4360,-27131,8711
4104,-27131,8711
2568,-28155,8455
2056,-28411,8199
1544,-28411,7175
2824,-27899,7175
3080,-27387,7687
2824,-27643,8455
2824,-27387,8455
3080,-27131,7687
4104,-25339,7687
4872,-24059,8455
6152,-24059,9479
6920,-23547,9991
7944,-22779,9735
8456,-21499,9991
10248,-19963,11527
13576,-17915,13319
17416,-14075,14343
20232,-11003,15623
21768,-11003,16135
22024,-13307,16135
21000,-13563,15879
18440,-16379,14599
17160,-17915,13575
16136,-19451,13575
12552,-21243,13319
6408,-22779,12551
1544,-24827,11015
1032,-26107,9991
1032,-26363,10247
1032,-26107,9991
1800,-26107,8967
5640,-24827,9735
8712,-21755,11783
9736,-17659,15879
8968,-10235,20743
3848,-251,26887
-3832,10244,-30200
-11512,20484,-19448
-17400,29188,-6904
-16888,-22012,11528
-9207,4612,-25591
-3063,-13820,13321
10,-23035,-12022
5130,8197,6155
-245,9476,6155
-5877,9476,6923
-10229,6915,-24821
-29942,25859,-9718
-16119,19715,19209
11785,-26108,-4344
-29176,12548,-20728
-11000,-6396,-31225
2824,-18939,26375
11016,-26619,20231
13576,-31739,14855
13832,28421,9991
14088,24069,5127
16648,22277,2055
17672,20997,-1273
17671,19205,-5113
18183,16389,-8185
19975,15109,-10745
21767,14853,-13305
22023,14085,-15865
24071,13061,-19193
24839,11781,-22265
25095,11525,-24569
26119,11525,-27385
26631,11781,-30713
28679,12037,32007
29191,12037,31239
31239,13061,27399
32007,14853,24327
-32761,16133,20999
-31737,16901,19207
-30457,18181,16903
-30201,19973,14343
-30201,20997,11527
-29945,21253,9223
-30969,22021,7431
-31481,23557,4871
-30713,24837,2055
-29433,25349,519
-29433,25349,-1273
-30202,26117,-3577
-30202,27397,-6393
-30202,27397,-7929
-30714,27397,-9721
-32250,28165,-12025
32262,29445,-13817
31750,30213,-14329
31238,30469,-15353
29446,31237,-15609
27654,-32507,-15865
26118,-30971,-15097
25862,-30971,-14329
24326,-29179,-8953
22534,-27387,-5369
20230,-26363,-1273
19206,-26107,4103
17159,-25851,10759
14087,-25083,17159
13063,-24571,23303
12807,-24571,30471
11783,-24315,-27641
9479,-24827,-20985
7687,-24827,-15353
6407,-24827,-9465
6663,-25339,-3321
5639,-25083,1799
4104,-25083,5127
4104,-25851,8199
4104,-27131,11271
3592,-28923,14343
3336,-27899,16135
3336,-27387,17671
4104,-27131,19975
4616,-28667,22023
4360,-30459,22791
4360,-30203,23047
4616,-28923,23559
4360,-29179,25863
4616,-30715,26375
4872,-30971,26375
4616,-30715,27143
4872,-30715,27911
4616,-31483,28167
4616,-32507,27911
5128,32517,27655
5384,-32507,27911
5384,-32763,28167
5384,-32763,28167
4360,32517,27399
3848,32261,27399
4104,32517,27143
4104,-31483,26887
6664,-29435,26887
7688,-28667,27399
8712,-28155,27911
9736,-26619,28423
9992,-24315,28423
12808,-22267,29191
15368,-19707,30471
16904,-16891,31751
18440,-14331,31751
19208,-13307,31751
19464,-15355,31239
18696,-16635,29703
17928,-17915,28167
16904,-18939,27911
13832,-21243,27911
8200,-23547,26375
3080,-26619,24071
-504,-28156,22791
-2040,-28668,22279
-1528,-29436,21511
-1272,-29692,20487
-760,-29948,19207
-1016,-29948,19207
-1272,-30204,19207
-1272,-30204,18439
-1272,-30460,18183
-1272,-30716,18183
-1528,-30460,18183
-1528,-30460,17927
-2040,-30716,19719
-1016,-30460,26119
11528,-26363,-26105
-23544,-13563,-1785
12040,18182,30728
22025,29958,-24824
7945,-14329,9993
3850,31495,7434
-12790,17925,-26102
13321,6660,-14327
19720,-10493,5127
15880,9731,-20473
-26105,-13565,28934
-761,-27645,19462
16903,-29692,17414
32007,-13052,23302
-17913,7172,31751
-5369,19972,-25849
263,26373,-19705
2055,30213,-14585
2311,-31739,-9977
2823,-28923,-6905
3079,-28155,-4089
3335,-27643,-2041
4615,-25339,7
5896,-22779,1287
6152,-21755,2055
6408,-20987,2567
7432,-18939,2823
8712,-15867,3079
8712,-15099,3079
10504,-12539,2823
10760,-9979,1799
11016,-6907,263
12808,-3835,-249
12807,-2555,-2041
12807,-251,-3577
13831,4101,-4856
15111,7173,-5368
15111,8197,-6904
14855,10501,-8696
14855,13573,-10232
15111,16133,-11000
15367,16901,-13048
14855,17669,-14840
13831,19205,-16888
12039,20741,-18424
12039,20997,-19704
12551,20741,-21240
12551,21509,-22776
12551,22789,-23032
12295,22789,-23544
12295,20997,-23800
12295,18693,-23544
12551,18181,-21496
12039,18181,-20216
11783,14341,-14072
11783,11269,-10744
12039,8965,-6392
12039,6661,-504
12039,2565,4872
11016,-1531,8711
10504,-4603,12807
10248,-6907,17671
9992,-9467,21255
9480,-12795,23047
8200,-15611,24327
6408,-17403,25863
4616,-19707,27655
3848,-22011,27655
3848,-23035,27655
3336,-23291,27399
3592,-23803,27399
3336,-25339,27399
2056,-26875,26631
2312,-27131,26375
2312,-26875,25863
2056,-28155,25351
2056,-28923,24839
1800,-28667,24071
1288,-28667,23047
1288,-29691,23303
776,-29947,23559
1288,-29947,24327
1800,-30459,24583
1800,-31227,24583
1800,-31227,24839
1288,-31483,25095
1288,-31739,25607
1544,-31483,26119
1544,-31227,26375
1288,-31483,26375
1288,-31483,26375
1032,-31483,26887
1544,-31739,27143
1544,-31483,26887
1544,-30203,26631
1544,-28667,27911
2568,-26875,28423
4360,-26363,28423
5640,-25851,28167
5384,-24827,28167
5896,-23291,28423
8968,-21499,30215
12552,-18939,30983
12552,-17403,30471
13832,-13051,30983
14600,-12283,30983
17672,-12539,31239
17928,-13307,30471
16136,-14587,28679
15624,-17147,26631
12552,-19451,25351
7176,-22011,24583
1800,-24827,23047
-2040,-27900,20743
-2296,-29692,19975
-2296,-30460,19719
-2040,-30716,17927
-2296,-31740,16391
-2296,-32508,16135
-2808,-32764,15879
-2808,-32764,15623
-2808,-32764,14599
-3064,-32764,14343
-2808,32516,14343
-2808,32260,14087
-2808,32260,15623
-2296,32004,21511
11784,-31227,-29689
19208,-28667,-24569
11272,12806,26120
-23031,-9466,-9720
6665,-21497,6665
-1782,23046,2826
-17910,17413,-31734
10761,11268,-20215
18696,-6141,1287
19976,14083,-22521
-19193,-9981,26886
3847,-26364,16902
18439,-32252,14342
31495,-19452,19206
-18937,1540,26375
-6393,16644,-31993
-1529,22788,-25081
775,27141,-19193
2055,30981,-15097
2567,-31227,-12025
3079,-30715,-8953
3335,-30203,-5881
4615,-28155,-4601
5383,-25851,-4089
5383,-25083,-2553
5895,-24571,-1785
6407,-23291,-2041
8199,-18939,-1785
8967,-16635,-2041
8967,-16379,-2297
10247,-13819,-3321
12295,-9467,-4857
12807,-6651,-6137
12551,-5627,-6905
14087,-3067,-8185
15879,1029,-9208
15879,3845,-11000
14343,4613,-12792
14855,6149,-14072
14599,9477,-15608
15111,12549,-17144
15367,13317,-18424
14855,13317,-20216
14855,15365,-21752
15623,17157,-23288
15367,16901,-24824
15367,16389,-25848
14599,16645,-27128
14599,16901,-28408
14087,16645,-29176
13319,14597,-29176
12807,14085,-29176
13063,12805,-26872
13319,11525,-24056
14343,8709,-19960
14087,5893,-15608
13063,3589,-12024
13063,1285,-7416
12551,-2299,-2041
12039,-5883,3079
11016,-8955,7175
9736,-10747,10759
9736,-14075,15111
8968,-17403,18183
7688,-19963,19463
5896,-20731,20743
5896,-22267,23047
5640,-24827,24583
4616,-26107,24839
3848,-26107,24839
2824,-27387,25095
2824,-28923,25351
2056,-29691,25351
1800,-29691,25095
1800,-29435,24839
2312,-30971,25095
2056,-31227,25607
2312,-31227,25863
1800,-31227,25351
2056,-31739,25607
2312,-32763,26375
2312,32517,26887
1800,-32763,26887
776,-32507,26887
520,32261,26887
776,32005,27143
1544,31749,27911
1544,31749,28167
1032,32005,28423
776,32261,28935
1544,-31995,29447
2568,-29435,30471
4616,-27387,31495
5384,-26363,31751
6152,-24315,-32761
8456,-20475,-30713
10760,-16891,-29433
12552,-14075,-28665
13064,-11259,-27897
13832,-9467,-27129
15624,-8187,-27129
15880,-7675,-27897
16392,-6139,-28921
16392,-7163,-30457
15112,-10235,-30201
9480,-15611,-32249
2568,-20475,30983
-504,-23292,29959
-1016,-25852,28935
-1016,-28412,27655
-2296,-30460,25351
-3064,-31228,23559
-2808,-31228,23815
-1784,-31484,23303
-1528,-32508,22023
-2552,32260,20743
-3576,32004,20743
-3576,32004,20743
-3064,30980,20231
-2552,29956,21767
-760,31236,28935
12552,-30203,-21753
-22008,-16379,3847
12041,17158,-29432
-22007,-762,-248
5641,-9209,14857
11786,8967,16650
-25846,8453,-29430
5385,-9724,-19704
21512,-23037,3079
21256,2051,-21753
-18937,-18685,28422
6151,-29436,21510
23303,-26876,21510
-26873,-8700,28422
-11769,9732,-28921
-3065,19716,-22777
1031,25093,-17401
1031,28421,-12537
1287,32517,-8441
2567,-30715,-5113
3847,-30203,-2809
4359,-29179,-761
4103,-27131,519
4616,-25339,1287
6152,-24315,2311
6664,-23803,2823
6664,-21499,3079
7176,-18683,2567
7688,-17659,1799
8456,-16123,1031
8712,-14331,775
10760,-8955,-505
12039,-6395,-1529
12551,-4603,-2809
12807,-1275,-4345
14343,2821,-5624
14599,5893,-6904
14343,7429,-8184
14343,9989,-9720
14599,13317,-10744
15111,15365,-11768
15111,16645,-13560
14599,17669,-15352
13319,19717,-16376
13063,20997,-17400
14087,21253,-18680
14855,21509,-20472
14855,22533,-20984
13319,22277,-21496
13575,21253,-21496
13575,19717,-21496
13319,18437,-19960
13831,17413,-16376
13575,15621,-13048
13575,12037,-9976
13831,11269,-8952
13831,6661,520
13320,4101,6152
12808,261,10504
12040,-3067,14343
11272,-6139,18695
8968,-9211,22279
7688,-12283,24071
7432,-15867,25607
6408,-17147,27399
5128,-18427,28935
4360,-20475,28935
3848,-22011,28423
3848,-22523,28679
2824,-23291,28679
2312,-24571,28679
2056,-26107,27399
2312,-26107,26887
2312,-26363,26887
2312,-26363,26631
1544,-27131,25863
520,-28155,25351
776,-28411,25351
1800,-28411,25351
3592,-28411,25607
3080,-28411,25607
1544,-29435,25607
1544,-29691,25863
1800,-29947,25607
776,-30203,25351
520,-30203,26119
1032,-29947,26887
1288,-29691,27143
2056,-29435,27143
1800,-28411,27143
1800,-26619,28167
3592,-24827,29703
4360,-23547,29447
5384,-19963,29959
6664,-15355,31495
8200,-11515,-32505
11272,-8699,-31225
12808,-6907,-30713
13064,-5627,-30713
12808,-4091,-30713
13320,-3067,-30969
15368,-2555,-31481
15880,-3579,-32761
13064,-7675,32519
6408,-13563,31751
3336,-15867,30727
-504,-21756,27399
-1272,-24060,25607
-2296,-26876,24583
-2552,-29180,23047
-2296,-29436,21767
-2040,-29436,20999
-1528,-31228,20999
-1784,32516,20999
-2040,32004,19207
-2296,32004,18183
-3320,32004,18183
-4088,30468,18439
-3064,29700,22023
4104,31493,31239
27656,-26107,-14329
-5368,-2811,15111
27145,-26362,-19960
-4343,26886,2313
7946,13575,7178
18954,26886,-12278
-19191,-30460,4361
-30455,12291,18952
14344,19203,-12025
-30457,-7933,-28922
-22265,-14077,31494
16135,-29948,19718
30727,-20220,22278
-20985,-1532,30214
-8441,13316,-28409
-1529,22020,-23033
1287,26373,-17913
1287,29701,-12793
1287,32261,-9721
2311,-31227,-7929
3591,-30459,-6393
3847,-28923,-4345
3847,-27131,-2553
3847,-24827,-2297
4615,-24059,-2297
6407,-23035,-1529
8199,-20219,-505
7943,-18171,-1529
7943,-16635,-3065
8967,-14843,-4089
9479,-11771,-4601
10503,-7419,-5625
12295,-4603,-7673
13575,-3323,-9209
13575,-251,-9977
13063,1541,-10488
12807,6149,-13048
13831,8197,-14840
14087,9989,-15864
14599,12805,-17144
13831,14085,-18936
13575,14597,-20984
12807,15621,-22264
12807,17413,-23032
13063,18693,-24056
13063,18693,-25848
13319,18693,-26872
12551,18693,-26872
12551,18949,-27128
13063,19205,-27384
13319,17669,-26616
14087,15621,-23800
14343,14853,-19960
14087,13317,-16888
14343,10245,-13560
14087,6149,-8440
13575,3333,-3064
13575,773,2056
13576,-3067,6151
13064,-7163,11271
12040,-7675,13319
9224,-12027,18439
8456,-14843,19975
7176,-18171,21255
5896,-19963,23815
5128,-20219,25095
4616,-21499,25095
4360,-24059,25351
3592,-25595,25607
2824,-25595,25607
2568,-26107,25607
2312,-27899,24839
2312,-29179,24839
1800,-28923,24583
1288,-28667,23815
1288,-29691,23559
1032,-31227,23303
1800,-30971,24327
2056,-30459,24839
2568,-30715,24583
2568,-31483,24583
2312,-31995,24583
2312,-32251,24839
2056,-31995,25607
2056,-32251,25863
1800,-31995,25607
2312,-31995,26375
2312,-31995,27143
2312,-30459,27655
3080,-28923,27911
4104,-26875,28679
5384,-25083,29447
6152,-22267,31239
8712,-17403,31751
11016,-13563,32007
12296,-10747,-31993
12552,-8955,-31225
14088,-7675,-30969
14856,-5627,-31481
14856,-4603,-32249
16392,-4347,-32505
16392,-6907,-32761
11784,-11003,31495
5640,-16379,29959
1288,-21499,28167
-504,-25340,26631
-1272,-28412,25095
-2296,-31228,23303
-2808,-32508,21767
-2296,-32764,21511
-2296,-32764,21255
-1528,32004,19975
-1784,30724,19719
-1784,30724,19463
-1528,30724,19207
-2040,29700,18695
-2296,28164,19207
-2040,27908,24327
8456,29957,-28921
-30200,-28155,-7417
2824,6,24072
-30711,-22266,-9720
777,32519,11273
4618,15879,12042
4106,18950,-15094
31241,17412,-2551
27656,-3581,12807
18952,11011,-16121
-24825,-15613,32006
263,-29948,21510
17927,-32764,18694
-32505,-20476,22790
-18169,-1788,30470
-5881,13060,-26617
7,20997,-20729
519,22021,-18937
2567,27141,-11769
2567,30981,-8185
3079,-32251,-4601
3847,-31739,-3065
3847,-31739,-2297
4103,-29691,-1017
4615,-27131,775
6152,-25851,1543
7176,-24827,1287
7688,-22779,1287
7944,-18939,1543
9224,-16891,1287
9736,-15355,7
11272,-12283,-1529
12295,-8187,-2041
13319,-5371,-2553
13575,-3835,-4345
13831,-763,-6137
14599,3077,-7672
14855,6405,-7928
14855,7685,-9464
15623,9733,-11256
16135,13573,-12280
16135,16389,-13304
15623,16645,-13816
14343,16901,-17144
13319,18437,-18680
13319,20741,-19448
14343,20997,-20216
14343,20485,-22008
14343,20229,-23032
13575,20229,-23032
13575,20229,-23032
14343,19205,-22008
14087,16133,-19960
14087,14597,-16632
14343,13061,-12792
13319,9733,-9464
13063,5381,-4344
12807,2565,1032
12808,5,6152
13064,-3067,10503
12040,-7675,14343
10248,-11003,18695
8968,-13051,22279
8968,-15611,23559
8200,-18427,25095
6152,-20731,26887
5640,-21499,28423
5896,-21499,28423
5384,-24571,28167
4104,-26363,28167
3336,-26363,28423
3592,-26363,28423
3848,-28155,27911
3848,-29435,27911
4104,-29435,28167
3336,-29435,27655
2568,-29435,27143
1800,-30715,26631
1544,-31483,26887
2312,-31739,27399
2568,-31227,27399
2568,-31227,27399
2568,-31995,27399
2056,-32763,27399
2056,-32763,27399
2056,-31995,27655
2312,-31483,28423
2056,-31483,28679
2056,-30715,28935
2824,-28923,29447
3592,-27387,30727
4872,-25595,32007
5384,-24827,32007
8712,-17659,-31481
10760,-14075,-29433
12040,-11259,-28153
13064,-9467,-28409
13576,-7931,-28665
14344,-6139,-28409
15112,-5627,-28665
16648,-5627,-28665
16904,-7675,-29689
11528,-13051,-31225
5128,-18427,-32505
520,-23291,31751
-1528,-26620,29191
-1016,-29692,27143
-1272,-31484,26119
-1016,32516,24583
-1528,31492,23303
-3320,30468,21511
-3576,29444,20743
-1528,29444,20743
-1528,29444,20231
-1528,29444,18951
-1784,28420,18695
-2808,27652,20231
-3064,27908,20999
10248,31749,-26873
-27896,-23547,-3065
6408,8454,28680
-29431,-9210,-7672
-1015,-18426,8969
-5110,25094,5898
-12790,14853,-24822
18441,-2300,-14328
24072,-22013,4359
21768,515,-19705
-19193,-21501,30214
5639,-31484,21766
23303,-28156,21510
-26873,-12284,26886
-13305,5380,-30969
-3065,16900,-24569
1031,22277,-19449
1031,24837,-14841
1031,28165,-11001
2567,31237,-8185
3079,32517,-6137
3847,32517,-3833
4359,-31483,-2041
4359,-29435,-1785
4103,-29435,-1785
4615,-24827,-1017
4871,-20475,-761
6663,-14843,7
7944,-10747,7
8456,-8699,-249
8967,-7163,-505
9735,-4091,-1785
10503,-1019,-3065
11527,773,-3832
11783,2565,-4856
11527,5381,-6904
11527,7685,-9208
12295,8965,-10232
12295,9989,-11000
12807,12549,-12536
13831,15621,-14072
14087,15877,-15608
13575,16389,-16888
13319,18181,-17912
13319,19461,-19448
13319,19717,-20728
13575,19717,-21496
13575,20485,-22008
13575,20997,-22776
13319,20997,-22520
13575,19461,-21752
13575,18181,-20472
14087,16389,-17400
14599,14597,-14328
14855,12293,-10488
15623,9221,-5368
14855,5637,-248
13575,2309,4616
12808,-1019,8711
12040,-4603,13063
12040,-7163,17415
11784,-9979,20487
8968,-13307,22535
7688,-16379,24327
6920,-18939,25607
6664,-20731,26631
6152,-21755,26887
4104,-24315,26887
3592,-26107,26631
3336,-27131,26375
2568,-27899,25095
2312,-28667,24583
2312,-29179,24327
2312,-29947,24327
2568,-30203,24583
2312,-31483,23815
2312,-31995,23047
3080,-31995,23047
3080,-32251,23303
2824,-32763,23303
2568,32005,23303
2568,31493,23559
2824,31749,23815
3080,31237,24583
2824,30469,24839
2568,30725,24583
2312,31749,24839
3592,-31995,25351
6152,-30715,26887
6408,-29947,27143
6408,-27643,27655
6408,-23291,28423
8712,-18939,29959
11784,-15867,32007
13064,-13051,-32505
13320,-10747,-32505
14088,-9211,-32505
14088,-8955,-32249
14856,-8187,-32761
14856,-7419,32007
13576,-11515,30983
7944,-16891,29959
2568,-23035,28423
-1272,-27132,25863
-2296,-29948,24327
-2040,32516,23559
-1528,30212,22791
-1784,29188,20999
-1528,29188,19719
-1528,29188,19719
-2040,28164,19463
-2040,27140,17927
-2040,26628,16391
-2552,26884,16391
-2296,25604,17159
-2040,24068,18951
2312,24069,26119
21000,27397,-22777
-13048,-17403,6919
18697,20230,-24824
-12791,4358,2057
8714,-6137,12553
-28918,23814,-2294
2313,-11515,15113
-30967,-31996,-3063
17928,-30973,-9465
31239,-1789,-29178
-6649,-21245,23558
13575,32260,15878
27399,-32508,15622
-26361,-15356,22278
-13305,3588,30215
-2553,14340,-28409
2055,19717,-22777
2311,23045,-17657
2055,26629,-13305
2055,28933,-11257
2567,28677,-8953
3591,30213,-6137
4871,-32763,-4345
5895,-30459,-3321
5639,-30203,-3065
6151,-28923,-2297
6919,-26363,-2041
8711,-23035,-2041
9223,-22267,-3321
9479,-20475,-4345
10247,-17147,-4857
12039,-12795,-5369
12295,-12283,-6137
13319,-9211,-8441
13063,-5627,-9721
14343,-1275,-10745
15623,1541,-11768
16391,3333,-13048
15111,5125,-14328
14599,8197,-16120
14343,9989,-17400
14087,10245,-18680
14343,10757,-20216
15111,12549,-20984
15367,13829,-22520
15111,13829,-24056
14343,13829,-25336
13831,14085,-25336
14855,14597,-25080
14855,14597,-25592
14599,13573,-25848
13831,11525,-23544
13319,10245,-19960
13575,8965,-17144
13575,6405,-13816
13319,3845,-8440
13319,773,-3320
13575,5,-1528
13063,-4859,5895
11272,-8443,9991
10248,-11515,14855
9992,-14331,18439
9480,-16635,20487
8456,-19451,22535
6920,-22011,25095
5896,-23547,26375
6152,-24827,26375
4616,-26363,26119
4616,-27387,26887
4104,-27387,27655
4360,-28155,28167
4104,-29435,27399
3336,-30459,26887
3336,-30459,26631
3080,-30971,26375
3080,-31739,26375
2824,-32251,26887
3080,-31995,26631
3336,-32251,26887
3080,-32251,27399
3080,32261,27143
3080,32005,27399
3080,32517,27655
1800,32517,27911
1800,32005,28167
1544,31749,28423
2312,-32507,28935
3592,-30203,29703
4872,-28411,30727
5640,-27387,32007
5896,-23803,-32761
8968,-18683,-31225
12040,-14587,-29433
12808,-12795,-28665
13064,-11515,-27897
14344,-8955,-27897
16136,-6907,-28153
16392,-6651,-28409
16648,-6395,-28921
17160,-7675,-29177
13832,-11259,-29945
7432,-17403,-31737
2056,-22779,32007
264,-25595,30471
264,-27899,29191
8,-30971,26887
-504,32004,25351
-1528,32260,25095
-2296,32004,24071
8,32005,23559
-248,29956,22279
-760,29188,21511
-1272,29700,21511
-1528,29700,21255
-760,27908,22535
-248,28164,27399
8968,30981,-25849
-29432,-22011,-1273
3848,7430,30472
-31735,-12026,-5112
-2295,-20730,12553
-1526,27142,11786
-6902,15621,-20470
23049,2052,-10231
30728,-17917,7687
21256,515,-18681
-20985,-21501,31238
4615,31492,22278
23303,-31996,21254
-26617,-14076,28166
-12793,4612,-29177
-2809,14852,-23289
-249,16132,-21497
2311,23557,-12793
2567,27909,-8441
3591,29957,-5881
4359,30213,-3833
4615,31493,-1785
4615,-31995,7
4616,-29947,775
4872,-29691,775
5128,-29179,1031
7176,-26363,2567
7432,-23035,2823
8456,-21499,1799
9224,-20219,775
9992,-17147,7
11016,-13051,-249
11527,-10235,-1529
11783,-8699,-3065
12295,-5883,-4089
12807,-1787,-4857
12807,1285,-6648
12807,2821,-8696
13831,5381,-8952
14599,8965,-9464
14343,11525,-11000
14599,11781,-12280
14087,13829,-14072
13831,15877,-14584
13319,18181,-15864
13575,18693,-18168
14087,18181,-18680
13831,18693,-18936
13831,19461,-18680
14343,19461,-18680
14343,18693,-18680
14599,17413,-17144
14343,15877,-13816
15367,14597,-9720
15623,12037,-6136
14855,8965,-2808
13831,6149,2568
13064,2565,7944
13064,-763,12039
13064,-3579,16647
12040,-7419,20743
10760,-11003,24327
9736,-13307,26631
8456,-16379,27399
7432,-18171,28935
6408,-19707,30215
6152,-20219,30727
3848,-22779,29447
2568,-24571,28679
1800,-24827,28167
1800,-25851,27911
1800,-26363,27399
2824,-27643,27143
2568,-28667,26631
2312,-28923,26119
2568,-29179,25863
2312,-29691,25351
2312,-30203,25351
2568,-30459,25351
2312,-31227,25607
2312,-31739,25351
2312,-32251,25351
2056,-32507,25607
2056,-32763,26119
1800,-32507,26119
2312,-32251,26375
3080,-32251,26375
3336,-31739,27655
3080,-31227,27911
3592,-30203,28167
3848,-28667,28423
4104,-28411,28167
6664,-22523,29703
8968,-18427,31495
9992,-14587,-32761
11272,-11771,-32505
12552,-10235,-31993
14088,-8955,-31737
14344,-6651,-31993
14600,-5371,-32761
15880,-5371,32263
15624,-8699,30983
10504,-13051,30215
3848,-18171,28423
264,-22523,26631
-760,-26620,25351
-1272,-29436,23815
-2040,-31484,22023
-2040,-32252,20743
-1784,32260,19975
-1784,31492,18951
-1528,31236,18439
-1528,30724,17415
-2040,30212,16903
-2296,29956,16647
-2296,29700,16391
-2040,29188,16647
-760,29188,24327
12040,31237,-28153
-21496,-21243,-3321
12552,11782,28936
-22519,-6394,-8184
6153,-17145,7433
-3574,25350,4362
-25078,9989,-31222
3849,1540,-18423
20744,-13053,4871
23048,7683,-19961
-15609,-14333,29702
8199,-27900,20230
23047,-29436,18694
-28921,-15612,23302
-13817,3588,30215
-4345,16644,-28665
-761,23556,-22777
7,26117,-17913
775,28933,-14585
2055,32517,-11769
2055,-30971,-8697
3079,-30971,-6905
4359,-29947,-5625
4871,-28155,-4857
5127,-25851,-3321
5127,-25083,-3577
5895,-23803,-3833
7431,-19963,-3577
7943,-16891,-3577
8455,-15611,-4857
9223,-14331,-6137
11271,-10235,-7161
11783,-6907,-7929
11783,-5371,-9977
12551,-3579,-11001
14343,517,-11512
14343,3589,-13560
13319,5381,-15096
13063,6661,-16888
12807,9221,-18680
13575,12037,-19192
14343,14597,-20472
13831,15109,-22776
13831,15621,-24056
13319,16901,-25336
12807,17413,-26872
12807,16901,-28152
12807,16133,-28920
13319,16389,-28920
13319,16133,-29944
12295,15365,-29944
12295,14085,-28920
13063,12805,-26360
13831,11525,-22776
13831,9221,-18936
13575,5893,-15352
13063,2821,-10232
13063,-251,-4857
12807,-3579,519
12552,-6907,4103
11016,-9979,7943
9992,-13051,12807
9480,-15355,16135
8968,-17659,17927
7688,-20219,19719
5896,-21755,21255
5896,-22779,22279
6152,-24059,23047
5384,-25083,22791
3848,-26107,23303
3080,-27131,23559
3080,-27899,23559
2312,-28667,23047
1288,-29179,22791
2824,-29435,23303
2824,-29691,23559
2568,-29691,23815
2312,-30459,23815
2312,-31227,23815
2568,-31483,24327
2568,-31483,24839
2568,-31227,24839
1800,-31483,24839
776,-32251,24839
776,-32507,26119
1288,-32251,26631
2056,-30715,27143
2568,-29691,27911
3592,-29179,28167
4872,-27387,29447
5640,-24315,30215
7176,-19963,31495
10248,-16123,-32249
12296,-12539,-31225
13320,-9467,-30201
14856,-7419,-30201
14856,-6395,-30457
15112,-4859,-30201
14856,-4603,-30201
16648,-4603,-31481
15880,-7419,-32249
10760,-11771,-32505
3592,-17147,30983
8,-22011,28423
8,-25595,27399
-760,-28668,25863
-1272,-30972,24583
-1272,-31996,23559
-1272,-31740,22791
-1272,-31996,22279
-1272,32260,21511
-2552,31236,20487
-2808,31236,19975
-2296,31492,20231
-1784,30468,20231
-1784,29188,23303
1032,29445,31495
21768,-30715,-16121
-8440,-10747,12551
24585,28422,-20984
-12023,14086,3593
7690,3847,14090
-30454,29446,-758
13065,29190,-9974
-16887,31747,30472
16392,27395,-6649
30727,-4093,-26618
-5625,-21245,25862
15623,-28668,20230
29703,-20476,22022
-20729,-1532,28934
-7161,14852,-28409
519,24069,-22265
1799,28165,-16633
3079,31749,-12025
3847,-30715,-8441
3847,-28923,-5881
3079,-28411,-4601
3079,-27643,-2553
4103,-25083,-249
5639,-22779,519
6152,-22267,519
6152,-20987,775
7432,-18427,1543
7944,-15611,1543
9224,-14075,519
9480,-12027,-505
10247,-8699,-1017
10759,-6907,-1273
10759,-2811,-4345
11783,-1019,-5369
12551,2821,-6392
13319,6661,-7672
13831,8965,-8952
13831,10501,-10744
13831,13317,-12280
13831,16645,-13048
14343,18693,-14328
14855,19205,-16120
14087,19973,-17656
13575,22533,-18936
13575,23557,-20216
13831,23813,-21496
14087,23813,-22776
14087,24837,-23544
13831,25093,-23544
14087,24581,-23800
14855,23045,-22264
15367,21765,-19704
15623,19973,-16888
15111,17669,-14072
14343,14341,-9976
14087,11781,-3832
14855,11013,-1272
15111,6149,6664
14344,2309,11272
12552,-1531,16135
10760,-4603,20487
11016,-7419,23303
10504,-10747,25351
8200,-13563,27143
6408,-15355,28423
5128,-17403,28423
5128,-19451,28679
4360,-20731,29191
3848,-21499,29703
3848,-22011,29703
3848,-23803,28935
3336,-24571,28167
2824,-24571,28167
2568,-24571,27911
3080,-25595,27399
2824,-26363,27143
2568,-26363,26887
2824,-26107,26631
2824,-26619,27143
2824,-27643,27143
2824,-27643,27143
2568,-27899,27399
2568,-27643,27655
3592,-27643,28935
3592,-27131,28935
3080,-26107,28935
3080,-24827,29191
3592,-23803,29703
4104,-22011,30471
6664,-18171,32519
8968,-14075,-31993
10760,-11259,-30713
12296,-8187,-29177
13576,-5371,-28409
14344,-4091,-28665
14344,-3067,-28665
13832,-2299,-29177
15368,-2043,-29689
15368,-3323,-30713
11784,-7675,-31481
5896,-13307,-32505
1032,-17915,30983
-248,-20988,29191
-1272,-23804,27911
-1272,-25084,26375
-1528,-26108,24839
-1272,-26364,24327
-1016,-27644,22535
-1272,-28668,22023
-1528,-30460,21511
-1528,-30460,20487
-1784,-30204,20231
-1784,-31740,19463
-1528,32004,19975
-1528,32516,24839
6664,-29947,-29689
-30456,-20475,-6905
4360,6150,23560
32521,-14074,-12280
-4855,-22778,7689
1034,26375,9994
2314,25094,-16886
30217,21764,-2551
30472,-1021,13831
17416,11779,-15865
-23545,-11517,-32250
2567,-25084,23046
20999,-24828,20998
-28409,-9212,26118
-13561,9220,-32505
-3833,20484,-25849
-2041,22532,-23545
-249,30980,-16377
775,-31227,-12537
1287,-29435,-8953
1543,-28411,-6649
2311,-27387,-4857
4359,-25339,-3321
4871,-23803,-2041
4359,-22779,-1529
4615,-21243,-1529
5383,-19195,-1529
7175,-17403,-1017
7431,-15611,-1017
7687,-13819,-1785
8199,-10747,-3321
9735,-7419,-4089
11527,-4347,-4857
11783,-2043,-5881
12039,1029,-7160
12807,4357,-8696
12551,6661,-9976
12039,8453,-11512
12295,11269,-13304
12295,13829,-14328
12807,15877,-15608
13319,15877,-15864
13319,18949,-18680
13575,20997,-20472
11783,21765,-21752
11783,22789,-22776
12551,23301,-23800
12551,23557,-24824
12295,23557,-25080
11271,23045,-25336
11271,22789,-25592
11527,22277,-23800
12807,20741,-20984
13831,19205,-17144
14087,16645,-13304
14087,13829,-8184
13319,9989,-2552
13319,6917,2568
13064,4101,7432
13320,1285,11784
12552,-2043,16903
10760,-5627,20743
9736,-8443,23303
9480,-11259,25095
8200,-14331,26375
6152,-16123,27399
6152,-16635,27655
6408,-18683,27655
6152,-20475,27655
3848,-21755,27655
2056,-22523,26631
2056,-23035,25351
2056,-23803,24839
2312,-24571,24839
3080,-24571,25095
2824,-24827,24839
3080,-25851,23815
2568,-26363,24071
2056,-27387,24071
1800,-27387,24071
2312,-27387,24071
3080,-27387,24071
2056,-27643,23815
1032,-28411,24071
1032,-28411,24071
1800,-28411,24583
2568,-28155,24839
2568,-27131,25351
2824,-25595,25607
3080,-23803,26375
3848,-22267,26631
4616,-22011,27143
7432,-15867,28935
9480,-12795,30215
11528,-9211,31495
13320,-6139,32519
13832,-3835,32263
14088,-2555,32007
14856,-1275,31751
16392,-763,30727
17160,-1019,30215
13832,-5115,29703
7432,-11003,28167
1544,-16635,26375
-1016,-20476,24327
-1784,-23804,22535
-1784,-26876,22023
-1784,-28924,20231
-2552,-29692,18951
-1528,-29692,18183
-1528,-30204,17415
-1784,-30972,16647
-1784,-31484,15623
-2040,-32252,14855
-2040,-32764,14855
-2296,31492,15111
-2296,30724,15367
3080,31493,26631
25864,-28667,-20473
-6136,-5627,9991
25865,-30970,-23288
-7927,20742,265
7434,7175,7178
25866,28166,-10486
-12279,-20732,5129
-27639,24579,18440
22024,29187,-13561
-23033,-2045,-30970
3335,-19708,22534
19207,-28156,15366
29191,-22524,16134
-23545,-4092,24326
-9721,13572,32519
-1785,22532,-27385
2311,27397,-22265
2567,30469,-17657
3335,-31739,-12793
3335,-29947,-10745
2311,-29435,-9977
2823,-28923,-7673
4615,-26619,-4857
5895,-25595,-4601
6407,-23547,-4857
6407,-23291,-4345
6663,-20219,-3065
7943,-16635,-3321
8711,-15355,-5369
9479,-14075,-6649
9735,-11003,-6905
9991,-7163,-7417
11527,-4859,-9721
13063,-2555,-12025
13831,773,-12024
14343,4869,-12792
14087,7173,-14584
14343,8453,-17144
15111,10501,-17656
15111,13573,-17912
15623,15365,-19704
15879,15621,-22776
15623,16389,-23800
14599,17669,-24056
14855,18949,-25336
15111,18693,-27128
15111,18437,-28408
15111,18437,-28408
15367,18437,-28664
15367,18693,-28664
15623,16901,-27640
15623,14597,-25848
15879,13317,-22776
14599,11525,-19704
14855,8709,-15608
15111,5381,-10744
14599,2565,-5624
14343,5,-760
13319,-3579,3591
11784,-7675,8199
11784,-10491,12295
11528,-12795,15879
9224,-15355,18183
6920,-18683,19719
5640,-21755,21511
5640,-22011,23559
5128,-23035,23815
3848,-25083,24327
4104,-26363,25095
4360,-26619,25607
4104,-27131,25607
3592,-28155,25607
2824,-29435,25863
3080,-29435,26119
3080,-29179,25863
2824,-29947,25863
2824,-30971,26375
3592,-30971,26887
3848,-30971,27143
3336,-31483,26887
3080,-32763,27399
2568,-32763,28167
3080,-32251,28167
3592,-31739,28423
3592,-31483,28423
3848,-31227,29447
3848,-30459,29959
4360,-27643,30215
6920,-24571,31495
8712,-21243,-32249
10248,-17659,-30713
12808,-13051,-29689
13576,-9723,-29177
14856,-8187,-28153
15624,-7163,-27897
15880,-5115,-27897
15880,-3323,-28409
16648,-4347,-29433
17416,-5627,-29689
11272,-12027,-30201
5896,-16379,-31481
1288,-20475,32007
-760,-24572,29703
-248,-27900,28679
8,-29179,27911
8,-29947,26119
-248,-31484,24839
-248,-31996,24583
-248,-32508,24583
8,-32763,23559
8,31749,22279
-1016,30724,22535
-1016,30468,22535
-504,30212,25351
2568,31237,32519
22280,-29435,-15097
-11000,-9979,13575
20233,30470,-19704
-14839,17414,6665
5386,7175,16906
-28918,31494,3850
7690,-12539,25865
-12535,25603,-30456
-31736,-3581,19719
32008,-8701,-23546
-7929,-25597,29190
13319,-30460,23302
30215,-21756,24838
-19961,-3068,32518
-8441,13316,-25593
-2297,22276,-20217
263,25349,-15865
1543,28165,-11257
2055,32005,-6393
2567,-30715,-4089
2823,-30459,-3065
4359,-30203,-761
4871,-28155,1543
5128,-25595,2311
5384,-24571,2311
6664,-24059,2311
8200,-21755,2823
8200,-18427,2823
8712,-16379,2823
9992,-14843,1799
11528,-12283,775
11784,-8187,-249
12039,-4859,-1273
12807,-4859,-1273
14343,-507,-3577
14599,2821,-5368
14855,5893,-6392
14087,7941,-7928
14343,9221,-9720
14599,11781,-10488
14343,14597,-11768
14599,16133,-13048
14343,16645,-14328
14087,17669,-16632
14087,19461,-17912
13831,20229,-18680
13575,20229,-19960
13575,19973,-21240
13063,19973,-21752
12807,19205,-21496
12807,18181,-20216
13831,16645,-17656
14855,15365,-14328
14599,13317,-10744
14343,9989,-6392
14087,6661,-1016
14343,3589,4360
14344,773,9224
14344,-763,11015
12296,-6395,18695
12296,-9467,22535
11016,-12539,25351
9480,-14843,27655
8712,-17403,29703
8712,-18171,32519
8712,-15355,-28409
5896,-9467,-22265
-504,-508,-14841
-12024,12036,-6136
-28920,27396,4616
19209,-18684,16904
3081,1284,29705
-13559,19715,-22263
-30199,-28669,-7927
19721,-6653,10505
14346,23043,29962
18698,-11517,-26102
30218,7427,-29941
-24310,11267,20747
-13046,11011,-5621
1289,11268,25867
16649,10500,-17653
28424,9988,779
32008,9988,-13045
-24569,-23548,12042
-17913,-19708,11529
-2553,-20732,20488
16135,5,29448
28679,-24827,-28665
30983,25861,-22521
31751,15621,-18425
-31737,8453,-16121
-29177,2821,-12793
-27385,-3067,-10490
-25849,-9723,-9210
-23033,-15099,-9210
-21241,-17915,-8698
-19705,-18939,-7162
-18681,-19963,-6138
-18937,-21499,-5882
-20217,-22779,-5882
-23289,-24315,-5626
-25593,-25595,-5626
-25337,-27131,-5370
-25593,-27387,-5882
-24569,-27387,-5882
-24057,-26619,-5114
-24569,-26363,-4858
-24569,-25851,-5114
-25593,-23803,-5370
-26105,-22779,-5370
-25849,-21499,-5370
-25337,-19707,-5882
-25593,-18683,-6138
-26361,-17659,-6650
-27385,-16635,-7674
-26617,-15611,-7418
-26617,-14843,-7418
-26105,-14331,-7674
-26361,-14331,-7674
-27129,-14331,-8186
-27385,-13051,-8186
-27385,-12283,-7418
-28409,-11771,-7162
-29945,-10491,-6394
-30457,-8699,-5114
-31993,-6651,-3322
32263,-4603,-762
29447,-2299,2054
27144,517,4871
25352,3845,8711
23560,6917,12295
21768,10245,15879
21000,11525,17671
16392,15621,22791
14600,17413,25095
12552,18693,27655
10504,20485,29191
9736,21765,30727
9480,22533,31751
8200,23045,32263
6920,23557,32519
5896,23813,32519
5640,24069,-32761
5896,24581,-32761
4360,24837,31751
3336,24837,31239
3080,24581,30983
3336,24581,30983
3592,24325,30471
3592,24325,29959
3336,24325,29959
3080,24837,29703
2824,24837,28935
3080,25093,27911
2568,24837,28167
2056,25349,27911
2056,26373,26631
2312,26629,25863
3336,26885,25351
3336,26885,25607
3336,26885,24583
2568,27141,23559
2056,27397,23047
2312,28165,22791
3080,28933,22279
3080,28933,20999
3080,28933,20231
1800,28933,19719
1544,29189,19207
1288,29189,18183
1288,29445,17415
1288,29957,17671
1544,30213,17159
1800,30213,16135
2056,30469,15367
1032,30725,15367
776,30469,15111
776,30213,14087
1032,30469,14087
520,30981,13575
520,30469,12551
264,30725,12807
264,30213,12551
520,29957,12295
776,30725,12295
264,31493,11783
264,32261,11271
1032,32261,11015
1288,32261,11015
1544,32517,10503
1032,32517,9991
1288,32261,9735
1032,32261,10247
776,32517,10503
776,32261,10247
1032,32005,8967
1032,31749,8967
2312,32261,9479
2568,-32507,9735
1800,-32251,9223
1288,32517,8455
1288,32005,8711
1032,32261,8711
776,-32763,8455
1800,-31995,8199
1800,-32507,8455
1800,-32507,8455
2056,-32763,8711
2824,-29691,8711
4360,-27643,9223
5128,-26107,9735
4872,-24059,10247
6664,-20475,10759
9224,-16123,11783
11528,-11515,13319
12040,-8443,13831
14600,-7419,14087
16136,-6139,14343
16136,-5371,14599
16904,-5371,14599
17928,-8187,14599
14344,-12283,14855
7944,-17403,14343
1288,-22523,12807
-248,-26620,11783
264,-29691,12039
520,-31739,10759
520,32517,9479
-248,31748,8967
8,30981,9223
1288,30725,9223
3848,29701,8711
4360,28933,8711
520,26885,8711
-248,25092,12807
4104,23813,20999
24584,26117,-28153
-6904,-22011,263
25609,17158,-30712
-9975,4614,-2551
8457,775,5386
-24566,-25594,-11254
8457,3589,6410
-13559,-20733,17160
23048,-31229,-19705
-28921,-4349,25862
-3321,-25597,13318
16647,28932,6918
30215,29956,6918
-22009,-17404,14342
-7673,2564,23559
775,14085,31239
3591,19461,-28153
4359,22021,-23033
5383,26117,-17913
5895,29445,-14073
5639,30469,-11513
5639,30213,-11001
7687,-32507,-7673
8711,-30459,-5625
8967,-28923,-5113
8455,-28155,-4857
9223,-26107,-4857
10247,-23291,-4345
11783,-20987,-4345
11527,-19195,-4601
10759,-17403,-5625
11271,-13819,-6393
11527,-11259,-7673
11271,-9467,-8441
13063,-7163,-8953
12807,-4347,-9465
12807,-1275,-11001
12807,261,-12024
12807,2053,-12792
12807,4869,-13560
12807,7173,-14072
12807,8453,-15096
12807,8709,-16376
11527,9989,-17656
10503,12037,-18424
10503,13317,-19192
11015,13317,-19704
11015,14853,-21496
11015,15877,-22520
11271,16645,-23288
11015,16901,-24312
10759,17157,-25336
11015,17413,-25592
11015,18437,-25592
11015,18693,-25336
10759,18437,-24568
10759,17669,-22008
11015,16901,-19192
11527,15877,-15864
12551,14085,-11512
13319,11525,-6136
13319,9733,-504
13575,7685,4872
13064,4101,9736
13064,5,15368
12296,-3579,20231
11784,-6395,24327
11784,-8955,28167
11784,-12795,31239
11528,-15355,-31993
9992,-17147,-30969
9480,-18171,-30713
7944,-21243,-29689
7944,-22779,-29689
7176,-23803,-29433
6152,-25083,-29689
5128,-26875,-30457
4104,-28155,-30713
4360,-28667,-30713
4360,-28923,-30713
4104,-29691,-30713
4104,-30971,-30713
3336,-31227,-30713
3080,-30971,-30457
3592,-31739,-30457
3592,32517,-30713
4104,32517,-30457
4360,-31995,-29945
5384,-30971,-29945
5640,-30203,-29945
6664,-29179,-29433
7688,-27131,-28921
9480,-23035,-28409
12040,-19195,-27385
14856,-15867,-26105
15880,-13051,-25337
16136,-11771,-25337
16392,-10235,-26361
16136,-9979,-27641
16392,-8699,-28921
18184,-7675,-29177
18184,-10491,-29945
12808,-15611,-31481
5896,-20987,31751
1800,-24827,29703
1032,-28155,28423
1032,-30459,27399
-248,-31740,26119
-3320,-30972,25863
-6648,-26876,26119
-12536,-20732,28423
-20216,-15356,-32761
-26872,-7932,-25849
31496,5636,-15864
20232,20228,-2808
4872,31492,13064
-9975,-19965,30472
-24823,4099,-15607
30217,-27389,7177
23050,19459,26634
17418,-3581,-27126
15370,5891,-24565
11018,11011,-22773
11274,10755,-25589
17162,9475,17419
28426,-31997,-23286
-13559,19971,8969
20489,30212,-9976
-13560,-1020,-22521
8456,-21755,-32505
21512,30725,25607
26632,21253,20743
29704,14853,16647
-32504,10501,12295
-31224,7173,7943
-29688,3845,5383
-28408,1029,2823
-27128,-1275,-762
-24825,-3067,-3578
-22777,-5115,-5626
-20985,-7163,-7418
-19961,-8955,-9978
-18425,-10235,-13562
-16121,-11515,-15866
-14073,-12283,-16890
-12025,-13051,-19450
-10745,-13051,-21242
-8441,-12795,-25850
-7161,-13051,-27898
-5369,-12027,-30458
-4857,-10491,30982
-4089,-9723,27910
-3577,-8699,25350
-2809,-7163,22790
-1017,-5371,18950
-761,-5115,15622
-1017,-4603,13574
-1017,-3835,11270
-761,-3067,8198
-1785,-2555,5126
-2041,-1787,3334
-2297,-1019,2310
-4345,773,-249
-7162,1797,-1785
-9978,3077,-2297
-13050,5125,-2297
-14842,8197,-1785
-18170,11013,-505
-23290,13317,2055
-27129,16133,5127
-30457,19205,8711
-31993,19973,9735
27911,23557,18439
24583,24581,24327
21511,26373,29703
18695,27653,-30457
14599,28165,-24825
12807,28421,-18169
12039,28933,-12793
11015,29189,-8185
9223,28933,-4089
7175,29189,-249
6663,29189,3335
6664,29189,5383
5640,29189,7431
4872,28677,8967
4872,28421,10503
4616,28165,11783
4360,28165,12295
3848,28421,13319
3336,27653,14343
3848,26373,14599
4104,26373,15111
4104,27141,16647
5128,27397,17415
4360,26885,17415
3336,26117,17415
2568,25861,17671
2568,26117,17671
2824,26117,17671
2824,25861,17927
2568,25605,18183
2568,25861,18439
2568,25861,18183
2568,26885,18183
3848,27653,18183
4616,28933,18695
5384,30469,19207
5384,32261,19463
5896,-29947,19719
8968,-24827,20999
11528,-20731,22791
13064,-17147,24327
14856,-15611,24327
16136,-14331,24071
16392,-11771,24071
16904,-11003,23815
18440,-12027,23303
16648,-15611,23047
10248,-20475,22279
4104,-24827,20999
2312,-26363,19975
264,-32251,17927
8,30469,17159
-504,28932,16391
-1272,28932,14855
-248,28932,14599
264,28677,14343
520,27397,13831
-1016,26628,13575
-2040,26628,12807
-2040,26116,12039
-760,25860,12807
-760,26116,16647
2824,26373,24583
23560,30469,-25337
-9208,-15355,2567
23305,21510,-30712
-6391,6406,-6391
16905,-3577,3849
-28662,20486,-10230
-1783,-17916,13577
-24823,28931,27656
12552,27907,-7929
27399,-5885,-29178
-9977,-24829,23046
-2041,-30205,18950
22279,32516,14598
-29177,-14588,19974
-14841,3332,28423
-4601,15108,-30201
-1017,21252,-24825
7,24325,-20473
1799,27397,-16121
2567,30981,-12537
2823,32517,-10233
2823,32517,-8697
3591,-31483,-7417
4615,-28411,-5369
5895,-27131,-4601
6407,-26107,-4601
6663,-23803,-4857
6919,-20731,-5369
7175,-18427,-5881
7175,-16635,-7417
9479,-13819,-7929
11015,-10235,-8441
10759,-7419,-10489
11271,-5371,-12281
11783,-2555,-13305
12295,1541,-14072
12551,2821,-14584
13063,6405,-17400
13063,8453,-18936
13063,10501,-19448
12551,12805,-20728
12551,14085,-22520
11783,15365,-24056
12551,17157,-24568
13063,18949,-25336
12807,19205,-26872
12551,19461,-27896
12807,19973,-27896
12807,20229,-28408
13319,20485,-28664
12807,19973,-28408
12807,18949,-26616
13575,17413,-23800
14087,15877,-20216
13319,13317,-17144
13319,10501,-12536
12551,7685,-7416
12807,4613,-1784
13063,1541,2568
12040,-2043,7431
10504,-5627,11271
10504,-6907,12807
8200,-11771,18183
7944,-14843,20487
8200,-17147,23303
6920,-19451,24327
5896,-21499,24839
5384,-22779,24839
4872,-24571,25095
4616,-25083,25607
4360,-25851,25863
3848,-26875,25351
2568,-27899,24327
2312,-28923,24327
2312,-29435,24583
2056,-30203,24327
4872,-30203,25351
9992,-28155,29447
11016,-20987,-29689
5128,-11259,-23289
-8440,2820,-17400
-26104,18436,-8440
21768,-28156,2312
7433,-6396,10504
-7159,12035,14345
-24823,29955,21001
-30455,-29181,24585
21257,17667,-17910
30729,-17405,-10742
-19191,4099,-17141
-2551,10243,-31989
16649,11268,14859
-27383,12036,-5109
-8952,11268,-24821
-760,10500,18955
264,10245,-10229
-1017,9220,26635
-6137,-9212,9226
-12537,4356,6154
-10745,4612,12553
1543,17157,21000
15111,-15867,29447
23303,28677,-28153
23559,15621,-23033
23559,6405,-19961
23303,261,-17657
23303,-5883,-14074
24327,-10747,-12026
26375,-14075,-12026
28167,-16891,-11258
28679,-19707,-9722
28935,-21243,-9466
30727,-24827,-9466
31495,-25339,-10234
31751,-26875,-10490
32007,-28155,-10746
-32505,-28667,-11002
-31481,-28667,-11002
-30969,-28667,-11770
-30969,-27643,-12282
-30713,-27131,-12794
-29945,-26107,-13562
-30201,-24571,-14330
-30201,-23035,-14842
-29177,-22011,-14842
-28921,-20731,-15866
-29945,-19963,-17402
-30201,-18683,-18426
-30201,-18427,-18682
-30201,-17403,-19450
-29689,-15867,-19706
-31481,-14587,-19962
-31993,-12795,-20218
-32761,-11003,-20218
29447,-9467,-19450
27911,-6651,-17146
27655,-5627,-16634
25607,-507,-12794
22279,2565,-10489
18183,5637,-7161
16647,8965,-2553
15623,12037,775
14088,14085,3591
11272,16389,7687
9224,18693,11527
8712,20229,14087
8968,21253,15879
6664,21765,17927
5384,22533,20231
5128,22789,20999
5640,22789,21511
4616,22789,22791
3848,22789,24071
3848,22789,24583
4104,22533,24583
4616,22789,25351
4616,23045,26375
4360,23301,27143
4616,23301,27143
4616,23301,27143
4616,23045,27911
3848,23301,28167
2824,23301,28167
3080,23301,28679
3592,23813,28423
4104,24325,29447
3848,24581,29959
3336,24581,29703
2824,25093,29703
2568,25605,29959
3080,25861,29959
2824,26117,29703
1800,26117,28935
1800,25605,28935
1544,25605,28935
1544,25861,28679
2312,26373,28423
2312,26629,27911
2056,26629,27911
1800,27397,27399
1544,27653,26631
1800,28421,25863
2056,28421,25607
2312,28421,25351
2312,29445,24839
1288,29701,23559
1288,29701,23303
1800,30213,23047
2056,30469,22535
2056,30725,21511
1800,31237,21511
2312,31493,21511
2568,31493,20743
1800,32005,19975
264,32261,19463
-248,32516,18951
1032,32517,18695
1544,32261,18695
1032,-32763,17927
776,-31995,17671
776,-31995,17671
776,-31995,17927
1032,-31739,17415
1288,-30715,16903
1800,-28155,16903
2568,-26363,17159
3336,-25083,17671
4872,-22011,18439
7176,-17147,19207
9992,-12539,20743
12296,-9211,22023
12552,-8443,22023
14856,-5371,22279
15368,-3835,22279
16136,-3067,22535
18696,-3835,22535
18696,-6395,22023
13576,-11003,21767
5896,-17147,20487
1032,-22011,19207
-504,-25340,17927
-504,-27644,17159
-504,-29692,16647
-248,-31484,15623
-1016,-31228,15367
-2040,-31228,14599
-2296,-32508,14087
-2296,31236,13575
-2552,31236,12807
-1272,30980,13063
-1272,29956,14855
-1272,28676,19975
10504,28933,30983
-26616,-28923,-14329
6408,-2554,15879
-27383,-22522,-18424
-16119,-7162,-9720
4873,19975,1546
-3318,27909,-24054
20233,25604,-9463
22280,3587,8456
15880,14339,-20729
-25593,-12541,28422
7,-28668,17670
17671,-32508,14342
31751,-20732,17158
-19193,-1532,24838
-7161,14340,-31737
263,23557,-24825
3591,27141,-20217
3591,29445,-15609
3335,-32507,-11513
4359,-29179,-7673
5383,-28923,-6649
5895,-28667,-5369
6663,-26363,-2809
6663,-23291,-1273
8455,-22779,-1529
8711,-22779,-1529
8967,-20219,-1785
8711,-16891,-1785
8455,-16379,-2041
9991,-13819,-2809
11015,-11515,-4089
11015,-7419,-5369
12295,-4347,-6137
12295,-3323,-7161
12807,-1019,-8953
13319,3333,-10232
13831,6405,-10744
13575,6917,-11768
13063,8197,-13816
12807,11525,-14840
12551,14341,-15608
12295,14597,-16376
13063,15365,-17656
13575,17925,-19448
13063,20485,-20472
12551,20485,-20984
12295,20485,-22776
12295,21253,-23800
12039,22277,-24056
12039,22533,-24568
12295,22533,-25336
12295,22789,-25592
12551,22789,-25336
12807,22533,-25336
12551,20741,-22776
12807,20229,-20216
13575,19717,-16632
14087,17925,-12792
13831,14597,-8952
13319,11781,-3832
13063,9477,1544
12040,6149,6152
11784,2821,11528
11528,-507,16135
10760,-3579,20487
10504,-6139,23815
9992,-9979,26887
8968,-13051,28423
7688,-14843,30215
7432,-16635,30983
7432,-18683,30727
6152,-20219,30727
4360,-20987,30983
4104,-21499,30727
4104,-23035,30215
3848,-24571,29959
3848,-24571,29959
4104,-25083,29959
3336,-25595,29959
2568,-27131,29959
2312,-27387,29703
3592,-28155,29703
3592,-28411,29959
3592,-28411,30727
3592,-27387,30983
3848,-25339,30983
5384,-24315,30983
6152,-23803,30983
7688,-20987,31239
9480,-16379,-32505
12040,-12283,-30713
13832,-9467,-30713
14856,-6907,-30713
16648,-4347,-30457
16648,-3067,-30713
17416,-2299,-31225
19464,-2043,-31737
19720,-2555,-32761
16136,-6139,31495
9480,-12283,30471
4104,-17915,28423
2312,-20731,26631
2056,-23035,25095
1288,-25083,24583
264,-29435,21767
-248,-30204,19975
-504,-29436,19463
-760,-30460,18951
-248,-31740,17671
-248,-32252,17159
-760,-32252,16135
-504,-32764,16135
-760,30980,17159
8,30469,22023
11784,31749,-32761
-24824,-22267,-10489
7432,7942,21000
-25079,-13562,-15096
5897,-25081,2569
-502,18950,3082
-20726,8965,-26614
5641,6404,-11255
19720,-6397,11015
22792,14083,-14841
-15097,-9469,-30970
7431,-25084,23814
21255,-28668,19462
-31993,-15100,22534
-28153,-8956,24582
-5369,17924,-28409
7,25605,-23545
1799,29445,-19961
2311,32005,-16121
2055,-31227,-12537
2567,-29691,-10233
3079,-28667,-9209
3335,-27387,-8185
3847,-25851,-6649
3591,-24315,-6137
3847,-23547,-6137
4359,-21499,-6393
6407,-18683,-6905
7687,-16891,-6905
8199,-15099,-8441
8711,-12539,-9465
10503,-9467,-10489
11527,-7163,-11513
11783,-4603,-13305
11527,-2043,-15097
12039,773,-16632
12807,3333,-17912
13319,4613,-19448
13575,6149,-21496
13575,7173,-22264
13575,10501,-24312
13575,11525,-25848
13831,12037,-27384
13831,13061,-29176
13575,14085,-31224
13319,13829,32520
11527,13317,30984
11271,13573,29960
12807,13573,29704
12807,13573,29448
12551,13317,29192
12807,11525,30216
12807,9733,32520
13319,8453,-29432
14087,6405,-25336
13575,3589,-21496
12295,261,-17144
11271,-2811,-11513
11271,-5371,-5881
10759,-8699,-1785
9991,-12027,2567
9224,-14331,7175
8456,-16123,11015
7688,-18171,12807
6664,-19195,12807
5640,-22267,16647
4872,-23291,17671
4616,-24571,18183
3848,-26363,18439
3336,-27387,18951
3336,-27387,19975
2824,-28155,20231
2824,-28667,19975
2824,-29691,19719
2824,-30203,20231
3848,-30203,21255
4104,-30715,21511
2824,-31995,21255
2056,-32507,21767
1800,-32763,21767
1544,-32763,22279
1288,-32507,23047
1288,-32763,23303
1032,32517,23815
2056,-31483,24327
2312,-30203,24583
3336,-28923,25095
5384,-27643,26119
5384,-24827,27143
5384,-22779,26887
8200,-16379,28679
10760,-12795,30471
12552,-9723,31239
13832,-7419,31751
14088,-5883,31751
14344,-4859,31495
15880,-4347,30983
16136,-5115,30727
13576,-8187,30727
7688,-13819,29191
2312,-19707,27399
-1016,-23292,25863
-1016,-26108,24583
-1272,-29436,23815
-1272,-31740,22023
-1272,-31996,20999
-1784,-31996,20487
-1528,32516,19975
-760,30980,19463
8,30981,18695
-504,30724,18183
-1784,30212,18183
-2808,28420,18439
-2552,27396,22535
-1272,27652,25095
-31480,-28411,-10489
1544,-2042,19463
-32247,-23802,-16120
-1015,30214,4873
5642,14343,9738
4874,18182,-14326
31497,20228,521
29193,-1277,15879
14600,9219,-15097
-28153,-15101,-31482
-1273,-29693,22534
18183,-31996,18694
-31993,-19708,22790
-17913,-1020,30470
-7161,13572,-28153
519,22021,-21753
2567,25605,-17145
2567,28677,-12537
2311,31493,-9209
3335,-31739,-6649
4103,-30971,-4601
5383,-30203,-2809
5895,-28411,-1273
6151,-25851,-1017
6151,-25851,-1017
7687,-22779,7
8712,-19963,775
9992,-17147,1031
9992,-15355,-761
9991,-13819,-2041
10503,-10747,-3065
11527,-7163,-3833
13575,-3579,-4857
13575,-763,-6393
13831,2565,-7672
14343,6149,-9208
14087,8709,-10232
14343,10245,-11768
14855,12549,-13048
15111,15621,-14072
14855,17413,-15864
13831,17413,-17656
13575,18693,-18936
13575,20485,-19960
13831,21765,-21496
13831,22021,-22520
13831,22021,-23800
14087,22277,-24312
13831,22021,-24312
13319,22021,-24312
13575,20485,-22776
13575,19205,-20728
13831,17157,-17144
14855,14853,-12792
15367,12549,-7928
15111,9989,-3320
14855,6149,1800
14600,2309,7688
13064,-507,12807
13064,-3323,17159
12808,-6651,20999
11272,-10491,24071
9480,-13563,26375
7688,-15355,27399
6920,-17659,28679
6920,-19707,30215
6152,-21499,30215
5384,-22267,30215
5128,-23291,30471
4616,-25083,30471
4616,-25851,29703
4104,-26619,28679
3848,-27131,28935
3080,-28411,28679
2312,-28923,27655
2568,-29691,27143
2568,-29947,27143
2824,-30459,27399
2568,-30971,27399
2568,-31483,27399
2824,-31483,27911
2824,-31483,28423
2568,-31227,28423
3080,-29691,28679
4616,-28411,29959
5640,-27387,30471
5896,-25083,31751
7688,-21499,32519
9224,-17915,-31481
12040,-14331,-29689
12808,-11003,-28409
13576,-8443,-27897
14344,-7419,-27897
15624,-6139,-27641
15624,-4603,-27641
15880,-4859,-28409
15624,-6651,-29689
11016,-11259,-31225
5128,-16635,-31993
3080,-17915,-32505
-248,-24572,29959
-504,-27644,28167
-760,-30716,27399
-1016,-32252,25863
-760,-32508,24583
-1528,-32764,23303
-1784,31236,22535
-2040,30468,22023
-2040,30468,20487
-3064,30212,19719
-3064,28932,19975
-3064,27396,22791
1800,28677,29447
19976,-32251,-21241
-13560,-12795,6407
17929,25606,-26360
-16887,12806,-1271
5897,4615,10762
-30454,30470,-1014
5385,-11771,23561
-16375,28931,-30712
17416,25859,-4089
29703,-6909,-25338
-8441,-24061,27654
-505,-28157,24326
30471,-19964,23814
-19705,-1276,29958
-7673,13060,-28665
-1273,21252,-22521
1543,26117,-17913
1543,28933,-14585
1031,32005,-11257
1287,-32251,-8185
2567,-31995,-5881
3591,-30459,-4857
3335,-28411,-3833
3335,-26619,-2553
4871,-25083,-2297
6407,-23803,-2297
6663,-22011,-2297
6663,-19451,-3065
6407,-17915,-3321
7431,-15867,-4089
8967,-12795,-5881
10247,-9211,-6649
10503,-6395,-7161
11015,-4603,-8441
12295,-1787,-10233
12295,1285,-11768
11783,2309,-12024
12295,6149,-13816
12295,8965,-16120
13575,11013,-17144
13575,12549,-18168
12807,13829,-19704
12295,15365,-21752
12295,17413,-23288
13063,18181,-24056
13319,18437,-25080
13319,18693,-26360
12551,18693,-27128
11783,19461,-27128
12551,19461,-26872
12551,17669,-26104
12551,15365,-23544
13063,14853,-19448
13319,13573,-15864
13831,11013,-11768
14087,7173,-6904
13319,3845,-760
13319,1285,4872
13320,-2043,9223
12808,-5883,13831
11016,-9211,17671
9736,-9211,18439
8712,-14075,22023
7944,-16635,23815
6920,-18683,25095
5896,-20219,25863
5128,-21499,25607
5384,-23291,25607
5128,-25339,25863
4360,-25595,25351
3848,-25595,24583
3336,-27387,23815
3336,-28411,23815
4104,-28155,23559
3848,-28155,23047
3848,-28667,22791
3848,-30459,22791
4104,-31227,23047
4104,-30971,23047
4360,-30459,23559
4104,-30715,23815
3848,-31227,24071
3848,-31227,24071
3592,-29947,24071
5384,-27643,24839
6408,-25851,26119
6152,-25339,26119
8200,-20987,27911
10248,-16123,29191
11784,-12795,31239
14088,-9979,32519
14856,-7675,32519
14600,-6139,32263
13832,-4603,32007
13832,-4091,31239
14600,-4091,30215
14088,-6907,29959
9224,-11771,29703
3592,-17659,28167
-1016,-22012,25351
-1528,-25084,24071
-1016,-27644,23303
-1016,-29692,21767
-1528,-30716,19463
-2040,-30972,18183
-1784,-31484,18183
-1784,-32252,17927
-1528,32516,16391
-2040,32260,15111
-1784,31492,14855
-1784,29188,15879
-2040,28420,16135
6664,28421,27399
29704,-31227,-20473
-4600,-7419,9479
27145,-30970,-24056
-7415,22022,-1527
3081,8711,4362
16650,27398,-13814
-20727,-24572,3081
32521,20483,16648
18440,26627,-14585
-26105,-3581,-31994
1287,-21500,22022
19207,-29692,16134
32007,-23292,16134
-20729,-4860,23814
-8953,11780,31751
-1529,20740,-27897
1543,25349,-23801
2311,28421,-18425
2567,31493,-13817
2567,-32251,-11513
3335,-30715,-10489
4103,-29435,-8697
5127,-27387,-6137
5383,-26107,-5881
5895,-24059,-5881
6663,-22779,-5625
7943,-20475,-5625
8711,-17659,-5369
9479,-15355,-6137
9991,-13307,-7673
11527,-10235,-8953
12039,-6907,-8953
12807,-4347,-10233
13575,-2299,-12793
13319,517,-14328
13831,3845,-14840
13831,6149,-16632
13831,7429,-18424
14087,9733,-19960
14343,13573,-20984
14855,14853,-21752
15367,14853,-24056
14343,15109,-26104
13831,16901,-26616
14855,18181,-27384
14599,17925,-29432
14855,17925,-30968
13831,18181,-30968
12807,17925,-30712
13831,16389,-30968
14855,15877,-29944
15623,15365,-26616
15367,13061,-22776
14855,10245,-19448
14855,7685,-15864
15111,5637,-10488
15111,2821,-4344
14343,-1019,263
12808,-4091,4103
12552,-6395,9223
12296,-8955,14343
11272,-12027,17415
9736,-15099,18695
8456,-16891,20999
8456,-18427,23815
8456,-20731,25095
7688,-22523,24839
5896,-23803,24839
4872,-24571,25863
4616,-25851,26119
3848,-27387,25863
4360,-28155,25863
4360,-28923,25863
4104,-29179,25863
4104,-30459,25863
3592,-30971,25095
3080,-30971,25095
3848,-30715,26119
4104,-30971,26631
4104,-30971,26887
3080,-31227,26375
2824,-30715,26631
2824,-29179,27143
4360,-27131,28679
6664,-25339,29959
6664,-23547,30215
7432,-19963,31495
9224,-15611,-31737
12296,-11771,-30201
14088,-8699,-29433
14088,-6395,-28921
14088,-4859,-28153
15880,-3323,-28409
16904,-2043,-28409
17672,-1531,-28665
17672,-3067,-29177
14600,-6907,-30201
8712,-12283,-31225
5640,-14075,-32249
1288,-20731,30727
776,-24059,28935
776,-27387,27655
-248,-29436,26119
-1528,-29948,24583
-1016,-29948,24071
8,-30971,23559
8,-32507,22535
-504,32516,22023
-1272,32516,21255
-1016,31236,20999
-248,30212,23303
1032,30213,29959
15880,-31483,-21753
-18936,-15611,4103
14089,18694,-28920
-21239,4102,-1015
5641,-3577,13833
-16630,29958,6410
25354,-251,-30967
-2039,-22781,-20984
21000,-32253,2311
25352,-4605,-21242
-13049,-23037,30214
-5113,-27901,26118
28167,-24828,23814
-21753,-5628,29958
-8697,10500,-28409
-761,19716,-22265
1543,24581,-17145
2567,28421,-12793
3335,31493,-9209
4359,-31995,-6393
4359,-31483,-3833
4615,-30203,-2553
4871,-28155,-1529
4871,-26363,-761
4871,-25851,7
7176,-24059,519
8200,-21499,519
8712,-18939,775
9224,-17403,775
9736,-15867,-505
11015,-12539,-1529
12039,-9211,-1785
12039,-7419,-2809
12295,-4859,-4857
12295,-2299,-6905
12551,1285,-7672
12551,2309,-7928
13831,6149,-9976
13831,9477,-11000
14087,12037,-12024
14343,13573,-13304
14087,14085,-14840
13831,15877,-16632
13831,17669,-17656
14087,18693,-18680
13831,18693,-19704
13831,19205,-21240
13575,20485,-22008
13575,20741,-22008
14087,19461,-21752
14599,17925,-20472
14599,16901,-18168
14855,16133,-14840
15879,13317,-10744
15879,9989,-6648
14599,7429,-1528
14343,5125,4104
13576,1029,9224
13576,-2811,14343
13832,-6139,18695
12040,-8699,22791
11528,-9723,23815
9992,-15611,27911
9224,-18171,29191
8456,-19195,29959
7432,-20987,30471
6152,-23035,30727
4872,-24827,30471
4104,-24827,30215
4104,-25083,29959
3848,-26107,29447
4104,-27387,28679
3848,-27131,28679
3848,-27131,28679
4360,-27387,28167
4616,-29179,27399
4104,-29947,27399
4104,-29691,27655
3592,-29691,27399
3592,-30971,27399
3080,-31227,27399
3336,-30203,27143
3080,-28923,27911
4616,-28155,28935
6408,-27131,29959
7432,-24315,30471
7432,-22523,30727
10504,-18171,-32249
11784,-15611,-30969
12296,-12283,-30201
12296,-9467,-30457
13576,-8187,-29433
14344,-6907,-29177
14600,-5371,-29433
15368,-5371,-29689
15368,-7163,-30713
11528,-11771,-31225
6408,-17147,-31993
1544,-21243,31239
-760,-24828,28935
-2808,-28668,27143
-2808,-31484,25607
-2040,-31740,24071
-2040,-31996,22791
-2296,32260,22023
-2040,30724,21511
-2040,29444,20487
-2040,29444,19463
-1784,29188,18695
-1784,28164,18951
-2552,27396,19975
-3064,27652,20487
19976,32261,-24313
-14072,-16891,2311
17673,22278,-31736
-15863,8710,-5623
6921,-1529,7945
-27126,26886,10
8458,-7163,27913
-14839,-29437,-26104
13832,29443,-505
29191,-3837,-20474
-6649,-22525,30726
14599,-30716,22790
29447,-23292,23046
-21497,-5628,29702
-8697,9988,-28921
-761,19460,-23801
1287,24069,-20729
1287,27653,-16121
1799,30213,-11513
2567,-32507,-9977
3335,-31739,-9465
2823,-31739,-7929
2823,-29947,-5369
3335,-27899,-5113
3335,-27643,-5881
4359,-25595,-5113
5383,-23547,-4345
6151,-20475,-4345
7687,-18683,-5369
8967,-16891,-7161
8967,-13819,-7673
9735,-10491,-8185
11015,-7675,-9977
11527,-5371,-12281
12039,-2811,-13561
12039,1029,-13816
12551,3845,-15608
13319,5637,-18168
13831,7173,-19192
13575,9733,-19448
14087,12037,-20728
14087,12805,-23288
13319,13061,-25592
12807,15109,-25592
12039,16645,-26872
12295,16645,-28920
13319,16389,-29688
13063,17157,-29432
13319,17669,-29688
13319,17413,-30200
13063,16133,-29432
13319,15109,-26360
14343,13829,-22776
14855,11525,-19192
14599,8197,-15096
13319,5125,-10232
13063,2821,-3832
13063,-507,1287
13320,-4347,5639
12296,-7419,10503
10248,-9979,15367
9480,-12795,18183
9480,-15867,19975
8456,-18683,21767
7176,-20219,23815
5896,-22011,25095
5384,-23803,25351
5128,-25595,25351
4104,-26875,25095
3592,-27643,25351
3592,-28667,25095
3592,-29691,24583
3592,-29947,24327
4360,-30459,24327
4360,-30715,24327
4104,-31739,24327
4104,-31995,24583
2568,-32507,23815
2312,32517,23559
3336,32005,24583
3336,31749,24583
3336,31749,24839
3848,-32763,25095
3592,-31995,25607
5128,-30459,26887
5640,-29179,27655
6152,-27131,27911
7176,-23291,28935
8968,-19451,30215
10760,-16123,32007
12040,-13051,-32505
13320,-11259,-32249
14600,-9723,-31737
14856,-8187,-31993
15368,-7675,-31993
16136,-7675,-32761
14344,-11003,31751
9736,-16123,31495
3592,-21243,29703
1032,-22523,28167
-248,-28924,25863
8,-31739,24839
-1016,31236,23815
-2040,30212,22023
-1784,30212,20487
-504,28932,20487
520,28165,20743
8,27397,18951
-1016,27140,17927
-1272,26372,17927
-1016,23812,18439
-1272,22788,22279
7944,24325,32007
-32248,31493,-12793
776,-7162,18695
31753,-29690,-15864
-3831,24838,4617
3850,10759,9994
1034,15110,-14582
28169,20996,9
26377,2051,15368
17416,12547,-14585
-24313,-15357,-31738
1799,-30460,23046
7943,31748,19462
-32505,-24316,20486
-18425,-6140,28166
-6649,8708,-29689
263,17413,-24057
1799,21765,-19961
2567,24069,-14841
2567,27397,-10489
3079,29957,-8441
3079,30469,-6905
4615,31749,-4857
5639,-32251,-2809
5639,-29691,-2297
6151,-28667,-2553
7431,-27387,-2041
9479,-24571,-761
9735,-21499,-505
9479,-19451,-2297
9991,-17403,-3833
10759,-14587,-4345
11271,-11003,-4601
12551,-7419,-6393
12807,-4859,-8441
13319,-2043,-9209
14087,2565,-9464
14087,4101,-10744
14343,6917,-13560
14343,8965,-14328
14343,11525,-14840
14343,13573,-16888
13063,13829,-19704
13063,14085,-20984
13319,16133,-21496
13319,17669,-23032
13319,17413,-24568
13575,17669,-25848
13319,17413,-25848
13063,17413,-25592
13319,17157,-25592
13063,15877,-25080
13831,13317,-22264
14343,11781,-17656
14855,10245,-13560
14343,6917,-10232
14343,3077,-5368
13575,5,1032
13576,-2299,6407
13320,-5627,10247
12552,-9211,14599
12296,-12539,19719
11528,-13051,20743
9480,-17659,23559
7944,-20475,24327
6408,-22523,26375
6408,-23803,28935
6664,-24315,28935
5640,-26363,27911
5384,-27899,28167
4360,-28411,28423
3848,-28155,28423
4360,-29179,28423
4616,-30203,27655
4616,-30459,27655
3592,-30715,27655
2056,-31483,27399
2824,-31995,26887
3592,-32763,26887
3848,-32507,27399
3336,-32507,27911
2824,-32763,27911
3080,-31739,28679
3848,-30715,29191
5384,-28923,29959
5896,-28155,30727
6408,-26107,31495
6920,-24571,32007
11272,-17915,-30457
12808,-15099,-28665
13064,-12795,-28409
14088,-11259,-28153
15368,-9211,-27385
16392,-7675,-27385
16904,-7163,-27641
16648,-8443,-27897
15624,-11003,-28409
10248,-16635,-29945
3592,-22267,-31993
264,-25851,32007
264,-28411,30727
520,-31483,29191
8,32005,27143
-504,30980,25863
-760,30724,25351
-760,30980,24071
-1272,29956,23047
-1016,28420,22023
-1528,27908,21255
-2296,27396,20999
-2296,25860,20999
-1016,25604,25863
-248,25860,28935
-28920,-26875,-4601
4360,3590,26632
-31735,-14330,-9464
-3063,-23290,9737
-4342,23814,9738
-12022,14341,-20214
18697,1796,-8951
28680,-19197,9735
21768,-1021,-16890
-19449,-22013,32518
5127,32260,22790
24071,-30972,22278
-24569,-14076,28422
-10745,4868,-29945
-2297,15620,-24569
1543,19973,-19193
2311,22789,-14585
2567,27141,-11001
2055,29445,-9209
2311,29445,-6649
4103,30213,-4345
4615,-32763,-2553
4359,-29947,-2297
4615,-29691,-2553
4871,-29947,-1785
6919,-25851,-761
7431,-23035,-1017
7687,-21499,-2041
7687,-20219,-3321
7943,-17915,-3577
9479,-14075,-4089
9991,-11515,-6137
11271,-9467,-7161
12039,-6395,-7929
12551,-2555,-8953
13063,261,-10488
13063,2309,-11768
13575,4613,-12792
13575,7685,-13816
13831,9989,-15352
13831,11013,-17144
13575,12293,-17656
13831,14085,-18680
13831,15877,-20472
13319,16133,-21752
13063,16133,-22520
13319,17157,-22264
14087,18693,-22520
14087,18437,-22520
13831,17413,-22520
14087,15621,-19704
13319,14597,-16376
13319,12549,-12280
15367,9477,-7928
15367,6149,-3064
14087,3845,2824
12296,1029,7432
12296,-3067,12039
12808,-6395,17159
11272,-9211,21255
10248,-12283,24071
8712,-16123,25607
7432,-19451,26887
6408,-20731,28423
6152,-22267,28679
5384,-24059,28935
4872,-26107,28935
4616,-26875,28935
4104,-27643,28423
3336,-28923,27399
3080,-30459,26887
2824,-30715,26375
2568,-30971,25863
2568,-31227,24839
2312,-31483,24839
3592,-32763,25095
3848,32517,25095
3592,31749,25095
3336,31237,25095
3080,30981,25095
3592,30981,25351
4360,32517,25863
4616,-32251,25863
5128,-31739,26631
4872,-31227,26887
5384,-28923,27399
7944,-24315,29191
9480,-20475,30727
11016,-17403,31751
12040,-13563,-32505
13064,-10491,-32249
14344,-9467,-31993
14600,-8443,-31737
14344,-7419,-32505
14856,-7419,32263
13832,-9979,31495
10248,-15099,30983
4360,-20731,29447
-248,-24316,27399
-1272,-24572,26631
-1016,-30460,24327
-760,32004,23047
-1784,30468,21255
-2296,30468,19975
-2296,30212,18951
-2040,29700,18439
-2296,28420,17415
-2552,28420,16647
-2808,28420,16647
-2296,26116,16647
-2296,24580,18951
4104,24837,26375
26376,30725,-20729
-5880,-12539,8199
26633,28934,-26104
-8183,15622,-3319
3337,2567,4362
18698,23302,-11510
-17655,-25596,7433
-29943,19715,21768
16136,22787,-10745
-28921,-6909,-27898
-761,-24829,24582
18183,32516,17670
21767,31748,16646
-22521,-7420,25862
-8953,8452,-32505
-761,17924,-27385
7,23045,-22777
7,26373,-17913
1543,28677,-14329
3079,30725,-12025
3591,32517,-10489
3591,-32251,-8185
4359,-30971,-6649
5383,-29179,-5881
5383,-27387,-5881
5127,-25851,-5625
6407,-23803,-5625
8711,-20987,-6137
9991,-18427,-6905
9735,-16123,-7929
10247,-13307,-8441
11015,-10491,-9977
12551,-7675,-11257
13063,-5371,-13049
13575,-2555,-13817
14343,773,-15096
14599,2821,-17400
14087,3077,-18168
13319,6405,-20472
13319,8709,-20472
14343,10501,-22520
14343,11269,-24824
13575,11781,-25848
13063,13061,-26616
13319,14341,-28152
13831,14597,-30456
13831,14597,-30968
13319,14597,-30968
12551,14597,-31736
12039,14085,-32248
12039,12805,-31224
13063,11269,-27896
13575,9733,-24568
13319,8197,-21240
13319,5637,-17400
13319,2309,-12280
13319,-763,-6393
12807,-3835,-1785
12295,-7163,2311
10504,-10235,6919
10248,-12795,11783
10248,-15099,15111
9480,-15867,15367
6920,-20219,18439
6408,-22267,20743
5896,-23035,21511
5896,-24059,21767
5640,-25595,22535
5384,-26619,23559
4104,-28155,23303
4360,-28667,22791
2824,-29435,23047
2312,-30459,23047
3336,-30459,23303
3336,-30715,23559
3336,-31483,23559
3336,-32251,23815
2824,-32507,23815
2824,-32507,24839
2824,-32251,24839
3080,-32763,25095
2568,-32763,25351
2824,-31995,26375
3080,-30715,26887
4616,-28667,27399
5384,-27131,28679
6920,-23803,30471
6920,-21755,31239
11528,-15355,-32505
13832,-12027,-30969
13832,-10747,-30201
13832,-8955,-30201
14600,-6651,-30201
16136,-5371,-30457
17416,-5627,-30201
16392,-7931,-30201
12040,-12027,-31481
6664,-17915,32007
2056,-22523,30983
8,-25851,29959
264,-28667,28679
776,-30715,26631
520,-32763,24839
264,32005,24327
-1272,32260,23815
-1528,30980,22023
-504,29956,21255
-760,29956,21255
-760,29700,21511
-504,28932,21511
-1528,27396,23047
4360,27909,31239
8200,28933,-29177
-7672,-10235,13575
23817,29190,-20728
-12535,15878,2825
4106,5127,12298
26378,26118,-3062
-8183,-23548,14857
-25591,18691,25608
17160,21763,-8441
-32505,-9469,-27386
-4089,-25853,25862
15623,-32764,18950
29959,-23548,21254
-20985,-4348,29446
-7417,11780,-28153
-505,20228,-23289
2055,24325,-18169
2567,27397,-12793
3335,30725,-9209
3591,32517,-7161
3591,-32507,-5625
5127,-30715,-2553
6407,-28155,-249
6407,-26619,-249
6407,-26107,-1017
6407,-25595,-505
6663,-21755,7
8456,-18939,7
9992,-17403,-761
10247,-14843,-1785
11271,-11515,-2297
12295,-7931,-2809
12551,-5627,-4601
13063,-3067,-6393
13319,517,-6904
14343,4101,-8184
14599,6149,-9976
13575,7429,-12024
13319,10245,-13048
13575,13573,-13816
14855,15365,-14840
15623,16133,-16888
15111,17413,-17912
14855,19717,-18680
14599,20741,-20216
14343,20485,-21496
14087,20485,-22776
14087,20741,-22776
14599,20485,-22776
15111,19205,-22520
15111,18437,-22008
15111,16389,-18168
15367,14597,-14328
15879,12037,-11000
15623,8709,-6904
15623,6149,-1016
15111,2565,4360
14088,-1275,8967
13320,-5371,12807
11784,-8187,17159
10760,-11259,22023
10248,-14587,24327
9480,-17915,25351
8456,-19963,27399
7432,-21499,28679
7176,-23547,29191
7176,-25595,29191
5896,-26875,28935
4872,-27131,29191
4616,-28411,29447
3848,-30203,28167
3848,-30715,27143
3080,-30459,27143
3592,-31227,27399
4104,-31995,27655
4360,-32507,27655
4104,-32763,27399
3848,32261,27143
3848,31749,26887
3848,30981,26887
4104,30981,27143
4104,32005,28167
4872,-32251,28679
5896,-31483,29191
6408,-30203,29447
6408,-27643,31239
8712,-24059,-32505
12040,-20219,-31481
13320,-16891,-29945
13320,-14075,-28665
14600,-12283,-28409
15880,-11259,-28153
15368,-10491,-28665
15368,-9211,-28921
16904,-8443,-28665
16904,-11003,-28921
12808,-15355,-29689
5384,-20987,-31737
776,-25083,31495
520,-28411,30215
520,-29435,29959
264,32261,27143
-1016,30980,25351
-1784,30980,24071
-1528,30468,23047
-1528,29188,22535
-1016,28676,21767
-248,28932,20743
-1016,28164,19975
-1016,26884,20231
-1016,26116,24071
7688,27397,-32249
32520,-29179,-12025
-760,-1787,18951
28937,-22266,-14584
-6391,-30970,6921
3082,21511,11018
1546,21510,-15094
30217,18948,9
31753,-5117,15879
20744,7939,-14329
-22009,-16381,-31482
3335,-29436,24582
21767,-30204,21766
-27897,-15612,25862
-23289,-9212,28422
-4089,15364,-25593
1287,22021,-19961
2567,25093,-16377
2311,28677,-12537
2311,31237,-9465
2823,32517,-6905
3847,-32507,-5113
4359,-30715,-4089
4615,-28667,-2809
4359,-27387,-2297
4615,-26363,-2809
6151,-24059,-2809
6663,-21243,-2809
7431,-19451,-3065
8199,-18171,-3065
9479,-15867,-4345
9991,-12027,-5369
10247,-8699,-6393
11527,-6907,-7417
12807,-4347,-8953
12807,-507,-9977
13319,3077,-11000
14087,4869,-12024
14855,6405,-13304
15111,7429,-13816
13831,12037,-16632
13831,13061,-17400
13575,14341,-18680
14855,16389,-20216
14599,18437,-21752
14087,18949,-23032
12807,19205,-24056
12295,18949,-24824
12807,18949,-25080
13319,18693,-24824
13319,18181,-24056
13575,17925,-22264
14343,16133,-18936
14343,14085,-15864
14343,12293,-11512
14343,10245,-5880
14343,6917,-760
13319,2309,3848
11784,-1275,8711
10760,-3579,13319
10504,-6395,17415
10760,-9467,20487
9224,-12027,22535
7688,-14075,24071
7688,-15355,25095
6920,-19707,26119
5896,-20987,26119
4360,-21499,26119
4104,-22523,25351
4104,-24059,25095
3848,-24827,24327
3080,-25339,24071
3080,-25851,23559
3080,-26619,23559
3848,-27643,22791
4360,-27899,22535
4104,-28155,22535
4104,-28155,22535
3592,-29435,22535
3080,-29947,22535
2312,-29691,22791
1800,-29435,22535
3336,-28667,23559
4360,-27899,24327
5384,-26619,24583
5896,-25339,25095
6152,-22779,26119
8712,-19195,27911
10760,-15355,29703
11272,-14075,30215
12296,-8699,30983
12552,-7419,31239
13832,-5627,31495
13832,-3835,31495
14088,-3835,31495
15880,-4603,30983
14600,-7419,30471
9736,-12283,29447
3592,-16635,27911
520,-20475,25863
8,-24571,23815
264,-27643,22535
-1272,-29692,21255
-1272,-30972,19719
-1272,-31740,18695
-1016,-32508,18183
-1016,32516,17415
-2040,32260,16135
-2296,32260,15367
-1016,31748,15367
-1016,29956,15879
-760,28676,19463
8456,28933,29703
-30456,-27131,-14329
-19448,-21755,-6137
-29176,-18170,-17912
1033,-28153,2825
-3830,18694,2826
-12534,18949,-25078
16393,18948,-11511
23816,1027,7944
19976,14339,-19193
-18937,-10493,30214
6919,-26364,19718
21767,-29180,15366
-30969,-16892,18694
-17401,2052,26119
-5881,16388,-31993
519,24325,-26617
1287,27397,-22265
1799,30213,-17913
2823,-32507,-14073
2823,-30203,-11769
2823,-29691,-10489
3847,-28411,-9209
4871,-26107,-7929
5639,-23803,-7161
6151,-22779,-6905
7431,-22267,-6905
7687,-20987,-6649
9479,-15867,-6649
9991,-14587,-7161
11527,-13051,-8697
12551,-9723,-10233
12807,-5627,-11001
12807,-3323,-12025
12295,-2043,-14073
12295,773,-16120
13575,4357,-16632
14855,7173,-17144
14855,8453,-19448
14855,10245,-21752
14343,12805,-22520
14343,14853,-23288
14343,14597,-25336
14343,15365,-27640
13575,16645,-28920
12807,17669,-29688
12551,17669,-31224
12295,17157,32520
13063,17157,32520
14087,17157,-32504
13831,16901,-31992
14087,15365,-30712
13831,13829,-29432
14087,11269,-24056
14855,9477,-20216
14343,6149,-16120
13575,2821,-11000
13063,-251,-5369
12807,-2299,-249
12807,-5627,4103
11016,-9467,8199
9992,-12027,11783
9224,-14075,15111
9480,-16123,17159
8456,-18939,18951
5896,-20987,20231
5128,-21755,20999
4872,-23291,20999
4104,-25339,20743
3592,-26107,22023
3336,-26107,22535
3592,-26619,22279
3336,-27899,22023
2312,-28923,22023
2312,-28923,22023
3080,-28667,22535
4360,-29179,22791
4104,-30459,23047
1544,-30715,23303
1800,-30459,23303
2056,-30971,23303
1800,-30971,24327
2312,-29691,25607
3336,-28155,25863
4360,-27131,26375
5384,-25851,27655
6152,-23035,28935
8200,-18683,30471
10504,-14587,32007
12552,-11515,-32505
13576,-8955,-30713
14344,-7163,-30457
15368,-5115,-30713
15368,-4347,-30713
16392,-4603,-30713
17672,-5115,-30969
16136,-8699,-31737
10504,-14075,-32761
3592,-19707,30727
776,-22779,28679
8,-25339,27655
8,-28155,26119
-248,-30204,25607
-504,-30972,23815
-760,-30716,22791
-760,-31740,22023
-504,32260,20743
-760,32260,20231
-504,32260,19975
-504,31748,20231
-2040,30468,21255
-1016,30724,26375
15368,-30971,-23801
-18680,-15611,1799
13321,20486,-31480
-21751,4358,-3063
4361,-5113,12041
-19446,28934,3594
22794,2565,31242
-3831,-20221,-25336
17928,-30717,-2041
27143,-509,-23546
-11769,-19709,27398
11015,-28924,19718
26631,-23548,19974
-24313,-5628,26886
-10745,12292,-30969
-6905,16388,-29177
1287,26373,-20217
2055,30213,-14841
3335,-31739,-10489
3335,-29435,-8697
3079,-29179,-7417
3847,-28411,-5113
4103,-26107,-3065
5383,-23035,-2041
5383,-22523,-1785
5639,-21755,-1529
7431,-18939,-1273
8711,-15355,-1273
8967,-13819,-1785
8967,-12795,-2553
9991,-9467,-3833
11015,-5627,-5113
10759,-3579,-6137
11015,-2043,-7673
12039,1541,-8696
13063,6149,-10232
13831,8453,-11512
13831,9733,-12792
13575,12293,-14072
13831,15621,-15352
13831,16389,-15608
13831,17925,-17912
13831,18949,-19960
13575,21253,-21240
13575,23045,-22264
13831,23045,-23544
13831,23045,-24312
13575,23045,-25336
13319,23557,-25336
13319,23557,-25336
14599,22277,-23544
15879,20485,-20216
15879,18693,-17400
14599,16645,-14072
13575,13317,-9208
13575,9989,-4088
13831,7429,1288
13832,5125,6408
13064,1541,11016
12552,-2811,15879
11272,-6139,19719
10504,-8187,22279
9736,-10747,24327
7944,-14075,26119
7176,-16123,27399
7176,-16379,27655
5128,-18939,27399
4616,-20731,27399
4360,-21755,27399
4104,-22011,27399
4104,-22523,27143
4104,-23803,26887
3592,-25083,26887
3336,-25339,26375
3336,-25083,26375
3592,-25339,26119
3592,-26107,26119
3336,-26875,26119
3592,-26875,25863
4104,-27131,25863
3848,-27131,26631
4104,-27643,27143
3592,-27131,26887
4872,-25339,27655
7432,-23547,29191
7432,-22779,29703
6408,-20987,30215
7432,-16891,31495
9480,-13051,-32249
12296,-9467,-30457
13064,-8955,-30201
13320,-5371,-29689
14088,-4347,-29433
15112,-3067,-29177
15624,-2299,-29433
16648,-2811,-29945
14600,-5627,-30969
9480,-10747,-31993
3848,-16379,31751
-248,-20732,29959
-1272,-23804,27911
-1016,-26620,26375
-760,-28668,25351
-760,-29692,24071
-1016,-29436,22279
-760,-30460,21767
-1016,-31740,21511
-1016,-32508,20487
-1016,-32764,19719
-1784,32516,18695
-1784,31492,19975
8,31237,24583
10760,-32507,-29689
-28664,-22011,-7673
4616,10502,24584
15113,22278,-30200
-1783,-17402,7945
-2038,30214,8202
-13558,18181,-23798
16393,4100,-12535
25864,-15869,6151
23816,5123,-20217
-18681,-16125,29446
5895,-26108,22022
24839,-24828,20486
-25081,-7932,25862
-11513,10756,-32505
-3577,21508,-25849
1031,26373,-20473
2823,29701,-16889
2567,-31739,-12793
2823,-29435,-9465
2823,-29947,-8185
2823,-30203,-6649
2823,-27643,-4601
4359,-24059,-3065
6151,-23035,-2553
6407,-22779,-2553
6407,-21243,-2297
7175,-17147,-2553
7943,-16891,-2553
8967,-14331,-3833
9991,-12027,-4345
9991,-7675,-5625
11527,-4603,-6649
12807,-3323,-7673
12807,-763,-8953
14087,3845,-10232
13831,7173,-11256
14343,7685,-12792
15367,9989,-13560
15367,13573,-15096
14599,16645,-16888
14087,17669,-17912
13575,17669,-19448
13575,19461,-21240
13319,22021,-22264
13063,22277,-23032
13575,22021,-24056
13831,22533,-24568
13575,23557,-25080
13575,23045,-25336
13575,21253,-24056
14343,19205,-21496
14599,18437,-18424
14087,18181,-17400
13319,13573,-11256
13319,10245,-5880
13319,8197,-248
13831,5893,4616
13576,2053,9224
12552,-2299,14087
10248,-5371,18439
8968,-7931,21255
9480,-11003,23559
9736,-14843,25607
8200,-16635,26631
6152,-17403,26887
4872,-19195,26887
4872,-22011,27143
4872,-22779,27399
4104,-22779,26631
3336,-23291,25095
3592,-24315,25351
4872,-25339,25351
3848,-25851,24071
2824,-26107,23303
2312,-26875,23303
2056,-28667,23303
2824,-28667,23303
3592,-28667,23815
3592,-28667,23559
3592,-28923,23815
2312,-28923,23815
2824,-27899,24327
3592,-26875,24839
5128,-26363,25607
5640,-25083,26631
4872,-22523,26631
5640,-19451,27399
8712,-15867,29447
11016,-12283,31495
12040,-8187,-32505
13320,-6139,-32505
14088,-4859,-32761
13832,-3323,-32505
15112,-2299,-32761
15880,-2555,32007
14856,-5371,31239
10248,-10235,30471
4616,-15355,29191
264,-20219,26887
-760,-23804,25095
-760,-26364,23815
-1272,-28924,22279
-1528,-29692,21511
-2040,-30460,19719
-1528,-31228,19463
-1016,-32252,17927
-1272,32516,16647
-2296,32516,15623
-2552,31748,15367
-2296,30212,15879
-1784,28932,19207
4616,29189,27143
28680,-29435,-19705
-6392,-6395,9223
26377,-29434,-24056
-4855,23558,9
5642,9479,7178
10762,22790,-14582
-26359,-25596,2313
-31479,19715,18184
17160,24323,-13305
-26617,-4093,-30202
1031,-22012,23046
18951,-29692,17158
31495,-22524,18182
-21497,-3580,25094
-9465,13060,-32761
-4857,16900,-30457
2055,27141,-22265
2055,30469,-17913
2311,-31995,-14073
3079,-30203,-11513
3847,-30203,-9465
4615,-29947,-8185
4871,-27131,-6137
5639,-24571,-5369
7431,-23803,-5625
8199,-22779,-4857
8455,-20731,-5113
8199,-17403,-4857
8967,-15611,-6137
9479,-14331,-7929
11527,-11003,-8185
13063,-7163,-8697
12295,-5115,-10489
12551,-3579,-12281
13319,-763,-14329
14855,3589,-14840
15367,5893,-15864
14855,6917,-18424
14343,8965,-19960
13319,11269,-21240
13575,11781,-21496
13831,13829,-24824
14087,14341,-26360
14855,16133,-26872
13831,16901,-28408
13831,16901,-29944
14087,16901,-31480
14087,16901,-31736
14087,17157,-31736
14087,16389,-31736
13831,14085,-30456
14087,13061,-27640
14087,11781,-24312
14343,9477,-20216
14599,5893,-15864
14599,3333,-11256
13831,1285,-5624
13575,-2043,-249
13831,-6139,4103
12552,-9211,7943
10760,-11515,12295
9224,-14075,15367
7944,-17147,17159
7944,-19195,19207
7944,-20475,20743
7688,-20987,21767
5640,-23291,22535
5128,-24827,22279
4616,-25339,23047
4360,-25851,23559
4360,-26875,23303
4360,-28411,23303
3848,-29179,23303
2824,-29179,23559
2824,-29435,23303
2824,-29691,23559
3080,-29947,24839
3336,-30203,24839
3080,-30459,24839
2824,-30715,25351
2568,-30715,25607
3336,-30203,26887
3848,-29435,27399
3848,-28155,27399
5384,-26875,28423
6664,-24827,30215
7944,-21499,31751
9224,-17147,32519
11784,-13051,-31737
14088,-9979,-29689
14856,-9467,-28665
16136,-6139,-28409
16136,-5371,-29177
16392,-4347,-29689
16904,-4091,-29433
16136,-6395,-30713
13064,-10747,-31993
7688,-16379,32519
2568,-21499,31239
264,-24827,29447
264,-27643,27399
264,-29947,26119
8,-31483,25095
8,-31995,24071
-504,-31740,22791
-760,32516,21767
-1784,30724,20743
-1528,30724,20999
-1528,30980,20487
-1272,30980,20743
-1016,29956,23303
4360,30213,32263
26632,-28411,-14073
-5368,-4859,15367
25865,-28154,-17656
-30455,-14842,-7672
3081,12551,12810
21002,30726,-6134
-14583,-27388,9481
-26871,11523,21512
17416,16643,-11769
-29433,-9469,-29946
-1529,-24829,23814
17415,-28924,20230
-32761,-18428,23558
-18425,1540,30983
-6649,17156,-27641
7,24069,-21753
775,26885,-17145
1799,30469,-12281
3079,-30715,-8441
3335,-29179,-6137
3335,-29179,-4345
4359,-28155,-2297
5383,-25595,-505
6663,-23035,7
6920,-22523,263
6920,-21755,519
7176,-19195,1031
7688,-15867,519
7688,-15611,7
9224,-12795,-1017
11783,-9467,-1529
12039,-5371,-2297
12295,-2555,-3833
13063,-1019,-5625
14087,2053,-6648
14599,6149,-7416
14855,9221,-8952
14855,9989,-10744
14855,12037,-12024
14599,15621,-12536
14855,17925,-14072
15111,18181,-16376
15367,18949,-17912
14855,20997,-17912
15111,22789,-18936
15623,22533,-20728
15623,22021,-22008
14343,21765,-21752
14599,22277,-21496
13831,21765,-21752
14343,19973,-19960
14855,18693,-16888
15367,17157,-12280
16135,15877,-11256
15367,11013,-4600
14855,7941,1032
14856,5125,7432
14344,2309,12296
13064,-2299,15623
11272,-6139,19207
9736,-8955,23559
9736,-11259,26375
9736,-14075,27399
8712,-17147,28679
7688,-18427,30471
6152,-19451,31239
6152,-21243,30727
5896,-23035,30215
5128,-23803,29959
4360,-24315,29959
4104,-25339,29447
3848,-26619,28935
4104,-27131,28423
4104,-27131,28167
3848,-27387,28167
4104,-28667,27655
4616,-28923,27655
4872,-28923,27911
4872,-29179,27911
4360,-29691,27911
3592,-30203,27911
3592,-30203,28935
3336,-28923,28935
4104,-27899,29191
5384,-27131,30471
5896,-25595,31495
6920,-22779,32263
8200,-19963,-32249
9480,-16635,-30457
12040,-13051,-28409
13064,-9467,-27897
13320,-7675,-28153
13320,-6907,-27897
13576,-5115,-28153
14856,-3579,-28921
15624,-3835,-28921
15368,-7163,-28921
11016,-12283,-30713
4616,-16891,-32761
8,-20731,31239
-1272,-24316,29703
-1272,-28668,28167
-1272,-30716,26119
-2040,-30716,25607
-2296,-32252,24071
-760,32516,23303
-248,31236,22535
-1528,30980,20999
-1784,30980,20487
-1528,29700,20743
-1272,28164,20999
-1016,28676,25351
9480,30981,-29689
-28664,-23291,-7417
3848,6918,23048
-31735,-11258,-12792
-1271,-20218,6921
-3062,25862,8458
-15606,12805,-20982
12041,1284,-8695
24328,-15869,11271
20232,3587,-15865
-20473,-17661,-30970
5383,-29948,24582
22535,-27900,22790
-27385,-11516,27142
-14841,6404,-31481
-5625,17924,-25337
-2041,19972,-23545
1543,27141,-16633
1799,30725,-12537
1031,32517,-9977
1543,-32507,-7673
3079,-31483,-5625
4103,-30203,-4345
4103,-28155,-3577
4103,-27387,-3065
5383,-25851,-2809
7175,-23035,-2553
6919,-20219,-2809
6919,-18683,-3065
7943,-17147,-3833
9991,-14075,-5369
11015,-11003,-6649
11527,-7675,-7417
12295,-5371,-8697
12807,-3067,-10489
12807,5,-12536
12807,2309,-13560
12295,3845,-14328
13063,6149,-15608
13831,9221,-17400
14087,11525,-19192
14087,11781,-19448
12295,13317,-21752
12039,14085,-23544
13319,16389,-24824
13319,17157,-26104
12551,17157,-26872
12039,17157,-28152
11783,16901,-27896
12039,17157,-27896
12807,17413,-26616
14087,16133,-24056
14087,13573,-21240
13831,11269,-16888
13831,9733,-12024
13575,6661,-6904
13575,4357,-1784
13319,1285,3336
13064,-1787,8455
12552,-5627,13575
11272,-8955,17671
10504,-12027,20487
10248,-14843,23047
8712,-16891,24583
7176,-19195,26375
6920,-20987,27143
6920,-21755,27143
5128,-24571,27143
3848,-26107,26887
3080,-27131,25863
2824,-27643,25095
2824,-28411,25351
2568,-29179,25351
2824,-30203,24327
3336,-30459,24071
3080,-31227,24071
3592,-31995,24071
3336,-32507,24071
3592,-32763,24327
3080,32517,24071
1288,32261,23815
1288,32005,24071
2312,-32507,24583
3336,-31739,25607
4616,-31483,26631
5128,-30203,27143
5640,-27899,27655
7432,-24059,29447
9736,-20219,31239
11784,-16635,32263
12296,-12283,-31993
13320,-11003,-30969
15112,-8955,-30969
14856,-7931,-30969
15112,-6139,-31737
15624,-5371,-31993
15624,-7675,-32505
12296,-12539,32519
5896,-17403,30727
1544,-22011,28935
-504,-25852,27143
-1528,-29436,25351
-1528,-32252,23559
-2040,32516,22279
-1784,32004,21511
-1784,30980,20487
-1272,29700,19719
-760,29444,18951
-1784,29188,18183
-2040,27908,17415
-2040,26372,17415
-2296,25348,19975
3080,25605,28167
24584,30469,-19449
-9464,-14331,9223
21769,26886,-23800
31241,-24314,-13816
3081,1031,9994
21258,22790,-9718
-14071,-22268,5385
-27127,23811,18696
16648,24579,-14073
-29177,-6397,-31738
-1785,-25341,21254
16647,32004,15366
29447,-28924,16390
-23033,-10748,23814
-10233,6404,31239
-1785,17156,-27897
1799,22021,-22265
2823,25093,-17401
3591,28421,-13049
3847,31237,-10745
3847,31749,-9209
3847,32261,-6905
4103,-31227,-5369
4615,-28923,-5113
6151,-27643,-4857
7687,-26619,-4345
7687,-24315,-4345
7687,-20731,-4345
8455,-20475,-4089
9735,-17403,-5881
11783,-14075,-6905
11527,-10491,-8441
11527,-7675,-9721
12295,-6139,-11001
12807,-3579,-12281
12807,773,-13816
12807,3845,-15096
13831,4613,-16120
15111,6661,-17400
14855,9221,-18680
13831,11013,-20472
14087,11013,-21752
14087,11525,-23032
14343,13061,-24824
14343,14597,-26104
14343,14597,-26872
14343,14853,-27640
14343,14597,-28408
14343,15109,-28152
14343,15621,-27896
14599,14853,-26360
15367,14085,-22776
16391,13061,-19192
16135,12549,-18424
13831,7941,-11256
13831,4869,-5880
13575,1285,-760
13319,-1275,4103
12552,-4603,9223
11272,-8443,13319
11272,-11515,17159
9480,-14331,19719
8200,-16379,21767
8456,-18939,24327
7944,-20731,25863
6152,-22267,26375
4872,-23803,26375
4360,-25339,26375
4360,-26363,27143
4104,-26875,27143
3592,-27131,27143
3592,-27899,27143
3592,-28667,27143
3592,-29179,27399
3848,-29179,27143
4104,-30203,27143
4104,-30971,27143
3080,-30971,27399
2824,-30715,27399
2824,-31227,27911
2824,-31483,27911
2568,-31739,28679
2824,-30715,29703
3848,-29691,30471
5384,-28667,30471
6408,-26875,32007
6664,-24315,-32761
7176,-21755,-31993
10248,-17403,-30457
12552,-13819,-29433
13576,-10747,-27897
14600,-8699,-27129
15368,-7931,-27129
16392,-5883,-27641
16648,-4859,-28153
16904,-5115,-28153
17160,-7931,-28409
12808,-12795,-29945
6408,-18427,-31993
776,-22523,31751
-1016,-26620,29959
-1016,-30204,28679
-760,-31740,26887
-504,-31996,26119
-760,32516,24839
-1016,31748,24071
-1016,30724,23303
-1016,29956,22023
-1528,29700,21511
-1784,29188,21255
-2040,27652,21767
-1528,28164,26119
6920,30981,-28665
-32504,-24571,-6137
776,2566,24328
30985,-17402,-10488
-4599,-26362,9993
522,23303,12042
-246,19205,-15606
29961,10756,-3575
-32760,-12541,12551
19720,2563,-16889
-24057,-20477,32006
1799,-32764,22534
22023,-31484,21510
-27897,-14588,26374
-14073,4356,-31481
-3833,15620,-24569
-1017,17156,-22777
2567,25093,-14585
2823,29189,-10745
2823,31237,-7673
2823,31749,-5625
2311,32005,-4089
3079,-30971,-2553
4615,-28667,-1273
5639,-27899,-249
5639,-27131,-249
5639,-24571,7
6408,-21755,263
8456,-19963,263
9736,-18171,-505
9479,-15099,-1785
9735,-11771,-2553
11271,-8699,-3321
13063,-6907,-4089
