16905,-28922,12552
14345,-3834,25095
7944,15878,26631
2311,-19194,-30202
3846,26374,-2298
13573,17926,-19194
26373,18950,-17914
28421,21510,-15866
-28411,-29690,7942
-27898,-22010,24070
-27898,-16122,-26618
-27898,-9978,-14330
-27898,-2810,-3578
-28666,1286,4871
-29177,3078,11783
-29177,5894,16903
-28921,9990,21511
-28665,13062,26119
-27641,13318,29703
-27641,14086,32007
-27385,16902,-31225
-27641,18950,-29177
-28665,18694,-26873
-27897,18694,-25593
-26873,20486,-24825
-26361,22534,-23801
-26105,23046,-22265
-25849,23302,-21753
-26105,24326,-20473
-25081,26886,-18681
-24313,29190,-16377
-24057,30214,-15097
-25081,30982,-14585
-24057,-28154,-11001
-23033,-24314,-7673
-22009,-20730,-4857
-22265,-16634,-2041
-22521,-11258,1287
-22008,-5370,5127
-22008,-1786,8455
-21752,1030,9992
-22776,5382,11528
-24056,9222,13832
-24056,12038,16136
-24312,13062,17416
-25080,15622,18952
-27128,17414,20232
-28408,17158,20488
-28920,14598,20232
-29432,11782,18184
-30712,8966,15624
-30712,4870,13576
-30712,-1018,10503
-30456,-6906,6407
-30712,-11258,2055
-31736,-16122,-1529
-31737,-21242,-4089
-31737,-23802,-5369
-31481,-29946,-10745
-32249,-32762,-13817
32263,29190,-15865
32263,25606,-17401
-32761,23814,-19193
-32249,23046,-20217
-32249,20998,-20985
-32505,18950,-21497
-32249,17670,-22009
-32505,17414,-22265
-32249,16902,-22009
-32505,15110,-20729
-32249,14598,-19449
-32249,14854,-18169
-32505,14598,-17401
-32761,13830,-15609
32263,13062,-14585
32263,12806,-13305
-32249,13318,-12793
-30713,13062,-12793
-30457,12038,-12025
-29945,11270,-12793
-29689,10758,-14841
-28153,10758,-16377
-28153,10502,-16633
-28153,10246,-16377
-28153,10502,-16121
-27385,11270,-15353
-26105,12550,-14841
-26617,13574,-13817
-28153,14342,-13561
-27897,16646,-13049
-27641,18694,-11769
-27385,19718,-11001
-28153,20742,-10489
-30201,22022,-10489
-30457,23814,-10745
-30457,24838,-10745
-29945,24838,-12537
-30201,23558,-15609
-31481,22790,-18681
-32761,22790,-19449
30727,23302,-20729
29447,28934,-20985
27143,-22778,-13049
21255,6,3336
14600,23814,20488
8712,-23802,-30456
4104,-9210,-12280
1032,-5114,-4344
3592,4870,-30455
12297,262,-26871
17673,-19706,16392
16905,9990,-29688
9736,30214,-27129
3335,-9722,-22522
3846,30726,-1274
12549,20742,-22266
24325,19974,-24826
-32507,25606,-15610
-27899,-32250,-2554
-26619,-24570,13318
-26618,-17914,28678
-28154,-12538,-25338
-28410,-7162,-15866
-27898,-2298,-6394
-27642,774,2055
-27385,3334,6919
-28153,5382,10247
-28153,8198,15111
-28409,9990,19719
-27385,11014,22791
-27385,12550,23815
-27385,14342,25863
-27897,15110,28167
-27129,15622,31239
-26873,16902,31239
-26617,18182,32263
-25849,19974,-30457
-25081,20998,-28409
-25081,22022,-28409
-24825,24070,-27129
-24057,26630,-24825
-24057,28422,-22777
-23289,30726,-20985
-22521,-30970,-19449
-21497,-26618,-15353
-20985,-22778,-11257
-20985,-18938,-8953
-20985,-14074,-7161
-20985,-8954,-2809
-21241,-4858,1543
-21240,-762,4103
-21752,2822,5384
-22008,6662,7944
-23800,9478,11016
-25592,11014,12296
-25848,12806,12552
-25848,14342,13576
-27128,14342,14856
-28152,12550,14856
-29432,9478,12040
-29432,5894,8968
-29688,1286,6920
-30200,-3578,4871
-30712,-8954,-249
-30457,-14330,-4857
-30201,-19194,-7161
-30457,-24058,-9465
-30713,-28666,-13049
-30713,-32506,-17145
-30457,29702,-19449
-30457,26374,-20217
-30457,23558,-22265
-30201,21510,-25593
-30457,19718,-26617
-30969,17926,-26617
-30969,16646,-27385
-30713,15366,-28409
-30713,14598,-28921
-30713,13574,-28921
-30969,12550,-28409
-30713,11526,-27897
-30713,11270,-27129
-31225,11014,-26873
-30201,10758,-23801
-30201,11014,-22521
-30457,11014,-20985
-30457,11014,-19961
-30713,11014,-18425
-30201,11526,-17401
-28665,11526,-17401
-26873,11782,-17657
-26873,11526,-17657
-26873,10758,-19449
-26105,10502,-19961
-25849,11782,-19449
-26105,13062,-18169
-25849,13574,-17145
-26105,13830,-16889
-25337,15622,-16377
-25337,17158,-15609
-25337,18438,-14585
-25337,19462,-14073
-26361,20998,-13817
-26873,23046,-12793
-27385,24582,-12025
-27897,25094,-12537
-28665,25350,-14585
-29945,25350,-15609
-29945,24582,-19449
-29689,23814,-21497
-30713,23302,-23289
-32761,24582,-25081
30471,30470,-24569
27911,-20730,-15353
22791,1030,520
15624,24070,16648
8712,-22522,31752
4104,-8442,-14328
1288,1030,9737
4617,4870,29193
12297,-1530,31496
18441,-22266,10248
17929,5638,27656
11016,25350,29447
4615,-12794,-29946
5126,28678,-6906
15109,19462,-26106
26885,19718,-28410
-31995,26630,-18938
-27899,-29946,-4090
-25595,-21754,13062
-25850,-15098,27654
-27642,-13050,30726
-27642,-2554,-15610
-26618,2310,-5113
-26362,5382,2055
-26617,7686,6919
-27385,11526,11527
-27385,13830,17415
-26361,14854,21255
-26361,15878,22535
-26105,17670,24583
-26361,19718,28167
-25849,20486,30727
-24825,20998,31751
-24825,22790,31751
-25081,24070,-31481
-25337,24838,-29433
-25337,25350,-28921
-24313,27142,-28409
-23545,29958,-25593
-23801,31494,-23289
-23289,-32250,-22009
-22521,-29946,-21241
-21497,-25594,-17913
-21241,-21242,-13817
-20729,-18170,-11001
-20985,-16890,-11001
-20473,-8442,-5625
-20729,-3578,-1273
-21241,262,2824
-22008,4358,5384
-21752,8966,7688
-22264,12294,10248
-23032,14854,13064
-24056,16902,14344
-24824,19206,15368
-26104,21254,16904
-26872,21254,18440
-27640,20230,18440
-27896,18694,17160
-28408,15366,14856
-29432,10502,12552
-30456,5382,9224
-30200,518,5896
-29944,-4090,2567
-29944,-9722,-1017
-29689,-15098,-4089
-29689,-18938,-7417
-29945,-23034,-11257
-29689,-26874,-13305
-30969,-30458,-14841
-32505,-31226,-15865
-30457,30470,-19193
-29945,28166,-20729
-30201,25862,-21241
-30713,24070,-22521
-30969,23814,-23545
-30969,22790,-23801
-30969,20742,-23545
-30969,19718,-23289
-30969,19462,-23289
-30713,18694,-22265
-30969,17926,-20729
-31225,17414,-18937
-30969,17414,-17401
-30713,17926,-15609
-30969,17670,-14329
-30457,17926,-12537
-30201,18438,-11257
-29689,18694,-10489
-28921,18694,-9977
-27897,18694,-9977
-27129,18950,-10233
-26361,19206,-10745
-25593,19206,-11001
-25593,19974,-10745
-26105,20742,-10233
-25849,22278,-8697
-26361,22534,-8441
-26105,24326,-6905
-26105,26118,-6137
-26361,26374,-6137
-26873,27142,-6393
-28409,28678,-6137
-28665,30982,-4601
-29177,32518,-4089
-29945,32518,-5369
-29945,32262,-7673
-30201,32006,-10489
-30713,30982,-12537
-31481,29446,-14329
-32761,29446,-16889
30983,30726,-18681
28423,-27898,-16889
24839,-13818,-7929
19207,8454,7944
13064,32006,24328
6920,-15354,-25336
1032,-3066,-6392
-2296,6149,16905
2313,9990,-28919
4617,9990,-24823
16649,-21498,11272
15113,4870,26888
9224,24838,28423
4103,-13306,-29434
5382,29958,-3322
14341,22022,-21242
25861,23046,-22266
-32507,30982,-11514
-28667,-25082,4358
-27386,-17146,20486
-27642,-11258,-30714
-27898,-4602,-18426
-28666,2054,-7673
-29178,6406,1543
-29433,8966,8199
-29433,12038,14087
-29433,15622,19719
-28665,18182,24327
-28409,18950,27399
-28665,19974,29959
-28665,22534,32007
-28921,24582,-29945
-28665,24838,-27897
-28153,24838,-27385
-28153,26118,-27385
-27897,28422,-24569
-27641,28934,-22265
-26361,29190,-21753
-25081,31494,-20217
-25593,-31226,-17913
-26105,-29690,-16121
-25337,-28410,-14585
-23801,-25082,-12793
-23289,-20730,-9977
-23033,-17402,-6393
-23545,-14586,-3833
-22777,-9722,-761
-22521,-4090,3335
-22008,774,7432
-22264,4102,9992
-23800,7430,12552
-24312,12806,15880
-24824,16646,18696
-24824,18182,20744
-25848,19974,21512
-28408,22534,22280
-29688,23814,24328
-29944,23046,24840
-30456,21254,24328
-31224,20998,24072
-32504,16902,21768
-32248,11782,18696
-32504,6150,15368
32520,1030,11784
32520,-3578,8199
-32504,-8954,4615
-32248,-15098,1287
-32760,-19450,-2041
32007,-22778,-4601
30983,-26106,-7161
30983,-29690,-9209
32007,-32762,-10745
32007,30982,-12281
32007,29446,-13817
32007,26886,-14841
32263,24838,-15609
31751,24838,-16377
31751,23814,-16377
31751,22534,-16121
31751,20742,-16121
31751,20486,-16121
-32761,19974,-14585
32519,18950,-13049
32263,18182,-12025
31495,18438,-11769
32007,19206,-8185
32519,19206,-5625
-32761,19206,-4345
-32505,19206,-3833
-32761,19462,-3321
-32505,19462,-2297
-31225,19718,-2297
-28921,19718,-2809
-28409,19462,-3833
-28409,19462,-3321
-28409,19974,-2297
-28921,20486,-2041
-28921,21766,-1529
-29177,22790,-1017
-29177,23558,7
-28920,24838,775
-29688,25862,519
-30968,27142,519
-31224,28678,1031
-31224,30470,2823
-31480,31750,2823
-31992,32262,1543
-31736,32262,-249
-32249,31494,-2809
-32505,30726,-4089
31495,29190,-7929
30215,29190,-10233
29447,30470,-10745
27399,-30714,-9977
23815,-17146,-2553
17927,4870,12552
11272,28166,29704
5640,-18938,-20472
-248,-4091,-2552
-3832,7173,22281
-1015,12037,-20983
7433,5382,-18167
13065,-16890,25608
12809,12550,-20472
6920,32262,-18425
1543,-8442,-13306
1798,-32762,10502
8966,21510,-12538
20997,21766,-14842
30469,28678,-5370
-31227,-27642,9734
-29178,-18682,26374
-29178,-12026,-23802
-30458,-5370,-11514
-31994,-2554,-7674
-32250,6406,9223
-31993,9478,17415
-31481,12294,23559
-31225,15622,28423
-31225,18950,-31737
-30969,20486,-27897
-30969,21510,-25337
-30969,23558,-22265
-30969,25862,-19705
-30713,26886,-17401
-29945,26886,-15353
-29689,28166,-14329
-29689,29958,-12281
-29689,30982,-10233
-28921,31494,-9209
-28409,-32506,-7673
-27897,-29946,-5625
-26873,-27642,-3321
-26105,-26106,-1529
-26361,-24058,263
-26360,-20218,2823
-26360,-16122,6151
-25592,-12794,9479
-24056,-7930,13319
-24056,-5370,14599
-23800,3078,21256
-24056,6918,25352
-24312,11014,28424
-25080,15622,31240
-25848,19718,-31224
-27128,22534,-28920
-27384,23814,-27640
-28152,26374,-26872
-29688,28166,-25336
-31224,28166,-24312
-31224,26374,-24056
-31224,24582,-26104
-32760,21254,-28152
32264,16390,-30712
32264,10502,30984
32264,5126,26376
31752,-250,22535
31240,-6138,18695
31240,-11770,15367
31240,-16378,11783
31752,-20218,8455
31752,-24570,5127
31240,-28666,3079
30984,-31226,1031
30984,-31738,7
31752,29958,-2553
32007,27654,-3321
31239,25606,-4601
30983,24070,-6393
30215,23046,-6905
30215,21254,-6905
30215,19718,-6905
30727,19974,-6905
32007,18950,-5881
32007,17926,-4601
32007,16902,-3577
32007,16902,-2041
31239,17414,7
30984,17414,1799
30728,17414,3335
31240,17926,4103
31752,17926,5127
-32760,17926,6407
-32504,17926,6919
-30968,18694,6919
-29944,18950,6663
-29432,19206,6407
-29432,19718,6663
-29432,20742,7943
-29688,20998,8199
-29688,22278,9223
-29432,23558,9991
-29176,24582,10503
-29176,26118,11271
-30456,26630,11271
-31224,27398,11527
-31224,29190,12039
-31224,30982,11783
-31736,31494,11783
-31992,32262,11271
-32504,32262,8967
32520,31494,4615
30728,29446,1799
29192,28678,1031
28424,29958,-505
27143,-32250,-2041
24071,-21754,3335
18440,-2042,18183
11016,23814,-28664
4104,-18170,-12536
-2808,-507,3848
-9207,10245,23305
-9463,14085,-23031
-1015,7173,-18935
2057,2822,-21751
10761,11526,-14584
7688,29958,-7929
2567,-12794,-4090
-250,23301,13574
4358,8966,-13306
15365,7942,-19706
27653,15366,-12026
-32251,26374,3334
-31482,-29690,21510
-31738,-20474,-26362
-31738,-12026,-11514
-31738,-4602,518
-31737,1286,11527
-32505,5638,21511
-32505,9478,28423
-31737,13574,-31481
-30969,16902,-26617
-30713,18438,-21241
-30457,19974,-17913
-30713,22022,-16377
-30969,23558,-13817
-31225,24070,-11257
-30969,25094,-8697
-30201,27398,-7673
-29689,28166,-7161
-29433,29446,-3833
-29433,29958,-2041
-28921,31750,-1017
-27897,-30970,775
-27384,-29178,3335
-27384,-27898,5383
-27384,-25082,6663
-26616,-21754,8967
-25080,-18426,12039
-24056,-14586,16391
-23800,-9978,19975
-24056,-4090,23047
-24312,774,27144
-24568,4614,32008
-24568,9222,-30968
-24568,13574,-28664
-24824,17414,-26104
-25848,19974,-23288
-26872,22022,-21496
-27640,24582,-20728
-28152,26118,-19960
-29176,26374,-19192
-30456,24582,-19192
-30456,22534,-20472
-30456,21766,-21496
-31224,14598,-25848
-31992,8966,-29688
32520,2822,30984
32520,-2810,26631
32264,-8442,22535
32264,-13818,18951
32264,-18426,15367
31752,-22778,11527
31752,-26874,8455
31752,-31226,5895
32264,31238,3591
-32504,28678,1543
-32504,26374,-505
32263,24326,-1785
32007,21510,-3321
31751,19718,-5113
31495,18950,-5881
31751,18182,-5881
31751,16646,-5625
31751,15622,-4857
31751,15366,-4089
32263,14598,-3065
-32249,14086,-1273
-32249,13830,519
-32760,13830,775
32264,13830,3335
32520,14086,5383
-32248,14342,6919
-31992,14086,7687
-31480,13830,7687
-31224,13830,7175
-29432,13062,7175
-28408,13062,6151
-27384,13062,5895
-27384,14342,5895
-27896,14342,5895
-27896,14598,6663
-28152,15622,7175
-28152,16390,7431
-27128,18438,8967
-27896,19718,9479
-29176,20486,9479
-29432,21510,9735
-29688,23046,10247
-29944,25094,11015
-31224,25862,11271
-31480,26118,9991
-31480,26118,7175
-32248,25094,4359
32520,24326,3591
31240,23302,263
30472,23814,-1785
28679,28166,-2041
25607,-26362,4359
20488,-5626,18439
14088,19974,-28408
6664,-21754,-11512
8,-4346,5896
-5879,6917,26121
-4855,10245,-20471
3081,5382,-14327
11529,-16122,-32504
12809,11270,-9976
8712,29190,-5625
4359,-13818,-2042
2310,22022,14854
7430,8454,-10746
18949,5894,-19194
30213,12806,-12026
-29179,22790,3846
-29178,-32762,21766
-29178,-24314,-27386
-28666,-17146,-12794
-28666,-9210,6
-28665,-6650,4358
-29433,518,19463
-29433,3334,25863
-29433,7174,32263
-29177,10758,-27385
-28921,12294,-23289
-28921,13318,-20729
-28921,15622,-18937
-29177,17670,-15353
-29177,18438,-12793
-29433,19206,-11513
-27641,20230,-10233
-26873,22022,-7673
-27129,23302,-5625
-27641,23814,-4601
-26617,25350,-3833
-25849,28166,-1785
-25337,29446,1031
-24824,30982,2567
-24312,-31994,4103
-24056,-28154,7431
-23544,-24570,11015
-22776,-20986,13319
-21240,-16634,16647
-20472,-10490,21511
-20216,-8186,23559
-20216,-506,29959
-21240,3078,32008
-22776,8198,-30200
-22776,12294,-26872
-22776,14598,-24568
-22776,16646,-23032
-25080,19206,-21752
-26872,20742,-20216
-27640,20742,-19448
-27896,19206,-20472
-29176,17158,-22520
-30456,13830,-24056
-30968,9222,-26872
-30968,3590,-31480
-31480,-2298,29191
-31736,-7674,24839
-31736,-13306,21255
-31224,-19194,17159
-31224,-23546,13319
-31992,-27898,9991
-32504,-31994,7175
-32248,29446,4615
-31992,26886,2311
-31736,24582,-249
-31737,23558,-1017
-31993,19462,-3065
-32249,18182,-4601
-32249,16902,-5881
-32249,15366,-6393
-32505,13574,-6649
32263,12806,-7417
32263,12294,-7417
-31737,11782,-6649
-30201,11014,-5113
-30969,10246,-4089
32519,10246,-2809
32007,9990,-1017
-32761,10246,775
-31992,10758,2567
-32248,11014,4103
-32248,11270,5639
-31736,12038,5639
-30456,12038,5895
-27896,11782,6151
-27384,11782,5639
-27384,12038,4871
-27384,12806,5127
-27640,13830,5127
-27640,14086,5383
-27640,13830,5639
-27896,16134,7431
-27896,17926,7943
-28152,18694,8455
-28152,19718,8711
-28408,21254,9223
-28408,22534,9735
-28664,24070,9991
-30456,24326,9991
-30456,25350,9735
-30200,26374,8967
-30712,26374,6151
-31224,24582,2567
32264,23302,263
31240,23814,-761
29959,26886,-1785
27399,-31482,519
23560,-13306,12295
16904,11526,30984
9224,-28410,-16632
1544,-8954,-1528
-4856,2565,15369
-6391,7429,-30711
-1015,4357,-19703
8969,-15098,32008
12809,-24314,23560
13065,-31738,4103
7688,-11514,6662
3591,21254,19718
5382,2822,-14074
15877,-1530,-26619
28421,4870,-20730
-29435,15878,-6138
-27643,26886,11782
-27642,-29434,30214
-27642,-20218,-18682
-27898,-11258,-4346
-28410,-4346,7686
-28409,774,17415
-28153,4358,25351
-27129,8710,32007
-27641,12550,-27641
-27641,14086,-22777
-27897,15366,-18937
-27897,18694,-15865
-26873,20742,-13305
-26873,21510,-11001
-26617,22278,-8185
-26361,24326,-6137
-26617,26630,-4345
-26361,26886,-4089
-25849,27910,-1273
-25593,29446,519
-25336,32262,1799
-25336,-31738,3591
-24056,-30202,6151
-23032,-26874,9223
-23032,-22778,11783
-23032,-19194,14599
-21752,-15866,17415
-20472,-11002,21767
-19448,-4858,26631
-19704,518,30216
-19960,4614,-31480
-20472,8454,-27896
-20984,13830,-25080
-20984,18182,-22008
-22264,20742,-19704
-23032,23302,-17144
-23800,26374,-15608
-24824,28422,-14584
-24824,28678,-14072
-25336,27142,-13816
-26360,25350,-14840
-27640,22022,-17912
-27640,20486,-19448
-29176,11526,-24824
-29176,6406,-28920
-29688,774,31496
-30456,-5370,26375
-30200,-11770,22535
-30200,-16634,19207
-30200,-20986,15879
-29944,-25082,12039
-29688,-29434,8711
-30968,32518,6407
-31224,30214,3847
-31224,27910,1287
-31480,24838,263
-31224,23558,7
-30968,22534,-2041
-31225,20998,-3321
-31225,18950,-3577
-31737,17926,-3577
-32249,18182,-3833
-32249,17158,-4089
-32249,16134,-3321
-32505,15366,-1785
-32505,15366,-1017
-32249,15622,775
-32504,15110,1287
-32504,15366,4871
-31736,15878,6151
-31224,16390,7943
-31224,16902,8967
-31224,17158,9735
-29432,17158,9735
-28408,16902,8967
-28408,16902,8711
-28152,17158,8199
-27384,17414,7943
-27128,18694,8967
-27640,19718,10247
-28664,20230,10759
-28920,21510,10759
-28920,23046,11527
-28152,24582,13319
-28152,25606,13319
-29432,26374,13319
-30456,27398,13575
-30968,29446,13831
-31480,29958,13575
-31224,30470,13319
-31992,31238,12295
-32504,31238,9223
-32760,30726,7431
29960,29446,3847
29192,30470,3079
27144,-30202,3335
23048,-18170,8967
18184,3590,23560
11528,29190,-22264
2824,-11770,-5368
-4600,6149,10249
-9719,17157,28169
-8439,19973,-19191
9,11526,-17399
8201,-15354,23048
12041,7686,-24312
10760,23814,-19193
5895,-19450,-12794
3846,18694,7942
9990,8198,-14586
21509,7942,-18426
31749,15622,-7162
-29691,26886,8198
-29434,-28154,26118
-28410,-19706,-22778
-28666,-11514,-6650
-28922,-2810,5894
-28921,262,8967
-30969,6918,24071
-30969,10502,31751
-30713,14598,-28409
-30969,18438,-23801
-30969,20742,-19193
-31225,21510,-15865
-30713,24070,-12793
-29689,26886,-10233
-29689,27142,-8185
-29689,27910,-5625
-28921,29958,-3833
-29177,32006,-3065
-29177,32518,-1529
-29177,32518,7
-29176,-31482,2055
-28664,-28410,3591
-27384,-26362,5383
-26616,-25082,7943
-26872,-22522,10247
-26872,-17658,12807
-25848,-14074,15367
-24568,-10746,18695
-24824,-6650,22535
-24824,-762,26631
-24568,1798,27400
-25080,8710,-31992
-25080,12550,-27896
-25848,17414,-25592
-26616,21766,-23288
-26872,24326,-20728
-27896,25606,-18936
-29432,28422,-17144
-30456,30470,-16376
-31480,30214,-16376
-32504,27910,-16632
32008,25350,-17656
31752,22790,-19704
32008,18950,-23032
31752,12806,-26616
31496,7174,-29944
31496,2566,31240
31496,-2554,26375
31496,-8186,23047
31752,-13050,20487
31752,-16378,17415
31240,-19962,13831
30728,-24314,10759
30472,-27642,9223
30472,-29434,7943
31496,-29690,6407
31496,-32762,4871
31240,31750,4359
31240,30214,3847
30984,29190,2823
30984,28422,2567
31240,27398,3079
31240,26886,3847
30984,26886,5383
31752,26886,5895
31752,26118,7687
31496,26374,9479
31240,26118,11527
31240,26374,13319
31240,27142,14855
31240,27398,16903
32264,27910,18695
-32504,27910,18951
-31480,27654,18695
-31224,27654,18439
-30968,27398,17671
-29176,26886,16135
-27896,27398,15879
-27896,27910,15879
-28664,28934,16135
-28920,28934,16135
-28920,30214,16647
-28664,32262,17159
-28408,-30202,18951
-30456,-27130,21255
32520,-22522,22791
29704,-14842,26375
24584,-5114,32519
16648,5382,-27384
8968,14854,-24568
3592,24582,-22264
-3064,-30971,-15352
-11000,-22011,-5112
-17144,-15867,3080
-19703,-11771,8456
-20215,-8955,12552
-23287,-9211,14088
-24823,-11259,17928
-24823,-12539,20744
-25847,-14587,21768
32521,-16635,22280
22281,-19451,22792
14601,-23291,21768
12041,-25851,19976
12041,-30715,12552
12041,32005,8968
21257,517,-25848
-32760,-23035,16135
-18680,21765,-3577
-761,7941,-17401
20231,1286,-25337
-24057,262,-28665
-11513,2566,-29433
-11257,5126,-29433
-12537,6406,-30201
-12281,7430,-31481
-11769,8454,-32505
-11513,9734,32263
-11513,9478,30983
-11513,9734,29447
-10233,9990,28679
-9209,10246,27911
-8185,10246,26631
-7673,9222,24071
-6137,8198,22279
-4089,7686,20743
-2297,7174,18439
-249,5382,15367
1031,3591,12807
3335,1799,10247
4871,1799,9223
7943,-1273,2822
9735,-4345,-1018
11782,-6649,-4602
14342,-7929,-7674
17158,-9465,-11514
18694,-11257,-15610
19718,-12793,-18170
20486,-13305,-20474
21254,-13561,-22266
21254,-13561,-23546
21254,-12025,-23034
21254,-8697,-20730
20230,-5369,-17914
17670,-2041,-14842
14086,1799,-10489
10246,6919,-5113
7430,12551,1031
4359,17159,7175
7,21767,13575
-4089,27654,21255
-8185,32518,28423
-12025,-29178,-30969
-16121,-25850,-25081
-19961,-22522,-19193
-19705,-20474,-17145
-23289,-18170,-9465
-25337,-18426,-7161
-27129,-17914,-4345
-27897,-17914,-1529
-28665,-18170,7
-29176,-19450,263
-29432,-20986,7
-29432,-22266,775
-29176,-23290,1543
-29432,-24570,1543
-29944,-25850,775
-29944,-26106,519
-29944,-25082,1799
-29944,-23802,2823
-30200,-20218,5383
30728,-13562,9223
23816,-2042,17159
16648,14086,26888
8968,-31994,-28152
-248,-12795,-19960
-9208,2053,-13815
-13816,15877,-1783
-16120,-28667,25097
-22519,5381,4618
-24566,16901,18954
21770,1285,4875
8459,15621,14091
-2549,18948,15115
-4085,18948,14091
7435,16389,12043
24075,5125,3083
-26357,-20475,-23030
-14070,261,-7926
-759,16645,1801
18441,-20986,29192
-27640,17670,6152
-17656,-1786,-6905
-15097,-16122,-13817
-13817,-27386,-17145
-11769,30214,-18937
-11257,24326,-20729
-11513,19462,-21753
-11257,16134,-21753
-11257,14086,-21753
-11001,13574,-21753
-10489,12550,-21753
-9721,11014,-22009
-8185,8710,-23545
-8185,5126,-27385
-7673,4102,-29433
-7417,-1018,31494
-6649,-4090,28678
-5369,-6138,26374
-4345,-8186,23302
-2553,-11002,20742
-505,-13562,18694
1031,-16121,15366
2311,-18169,11526
4359,-20473,9222
5895,-22521,7174
6663,-24313,4614
7943,-25081,1798
8455,-26105,6
9991,-26617,6
9991,-26361,-762
9990,-25081,-1018
9734,-24313,-1018
9734,-22009,-250
8710,-19449,1286
5127,-16889,2822
2055,-13305,4870
-249,-9210,8198
-2553,-4090,12806
-6649,1542,17671
-7673,3590,19207
-13817,13062,28423
-17401,17670,-32249
-20729,21510,-28153
-23801,24582,-25337
-24569,26886,-23801
-25337,27910,-22265
-27641,28422,-21753
-29689,28422,-21753
-29689,28166,-22009
-29433,26630,-23033
-30457,25350,-23545
-31225,24326,-23289
-31481,23558,-24057
-30457,22022,-25337
-30457,20486,-26105
-30969,19462,-26617
-30713,19206,-26873
-30713,18694,-26617
-30201,17670,-26873
-29689,17158,-26873
-29945,16646,-26873
-29945,16646,-26617
-30201,16390,-25593
-30457,16646,-24825
-29177,16646,-25081
-28921,16646,-24313
-29177,17158,-23289
-29177,17670,-22265
-29433,17414,-22009
-29177,17670,-21753
-29177,17926,-22009
-29177,18694,-21241
-29433,18438,-21241
-29177,18182,-20985
-29433,17926,-20985
-29945,17926,-20985
-29689,17670,-21241
-29945,17670,-21497
-29689,17926,-21497
-30201,18182,-21497
-30969,17158,-21753
-31481,16134,-22265
-31737,15878,-22777
-31993,15622,-23033
-31737,15622,-22521
-32249,15622,-22777
-32505,15622,-22521
-32505,14854,-23033
-32761,14342,-23033
-31481,14598,-23289
-31993,14854,-22777
-32505,14086,-22777
32519,13830,-22521
32519,13830,-23033
-32761,13830,-22777
-32761,13318,-22009
32519,13062,-20217
32007,12806,-17913
32007,12806,-17145
32007,12806,-15353
31495,12806,-13305
30727,12550,-11001
30471,12294,-9465
30215,11526,-8697
30471,11526,-6905
30471,11014,-6393
31751,10502,-6905
-31737,10502,-8697
-30201,10502,-9977
-30201,10502,-10489
-30201,9734,-10745
-30457,9734,-11513
-30457,9734,-13049
-30457,9734,-13305
-30457,9478,-13561
-31481,9478,-14329
-31481,10758,-15097
-30969,12294,-15097
-31225,12806,-14841
-31225,13830,-14329
-32249,15366,-14329
31751,17926,-14329
32007,18694,-14585
32263,18694,-15353
32263,18694,-16633
32263,18182,-19449
30471,17414,-20985
28679,17158,-22009
27143,18950,-23033
26631,26118,-20985
23815,-26618,-13561
16903,-8698,-1529
9223,9734,9480
2056,24582,19208
-3320,-27387,-29688
-5368,-16891,-3064
-1272,-8955,23304
7177,-9466,-32248
12553,-25850,18952
14089,32006,12040
9737,-31226,-4857
5639,-3834,4614
5383,-28666,28934
10758,25350,7942
21510,24326,4870
32262,30470,11526
-28666,-27642,22278
-28666,-20730,-29178
-30202,-15098,-17146
-30714,-9722,-7674
-29946,-3834,774
-29433,518,8711
-29689,2310,15367
-29433,4358,19207
-29689,7174,22023
-29433,9478,26119
-29433,9734,29703
-29689,10502,31751
-29433,12550,32263
-29689,13574,-31737
-29945,13574,-29177
-30201,13830,-28153
-29689,15110,-27641
-28665,16902,-26361
-28153,16902,-25081
-28409,17414,-23289
-27641,18694,-23289
-27129,20998,-22521
-27129,21766,-20729
-27385,22534,-19449
-27385,24326,-19193
-27385,27398,-18169
-26105,29702,-15865
-25081,31238,-14073
-25081,-30970,-13049
-24825,-26874,-11769
-25081,-23034,-8441
-25081,-20218,-4857
-25081,-16890,-3833
-25849,-13306,-3321
-26617,-10234,-1529
-26361,-8186,775
-26360,-6138,1799
-27128,-2810,2567
-28408,6,3848
-29176,1286,6408
-29176,2054,7688
-30968,3590,7944
-31736,4614,9224
-31736,4614,10248
-32248,2310,10760
-32504,-506,10503
31496,-2810,8711
30728,-5882,7431
30728,-9978,6151
31496,-13562,5127
31752,-16634,3079
31752,-19706,1031
31752,-23546,263
31240,-26874,-1529
31495,-28922,-2809
31239,-31482,-4089
31239,31750,-4345
31495,29702,-4601
31495,28422,-4601
31495,27398,-4089
30727,26118,-3577
30727,25094,-2041
31239,24838,-249
31495,25094,1287
31752,24582,3847
31496,23558,5639
30984,23302,6663
30472,23558,7943
31240,23302,8455
31496,21510,8711
-32248,20742,8711
-31480,20486,7687
-30456,19462,5639
-29688,18182,4615
-29688,17414,3847
-29432,17414,3335
-29176,17414,2823
-29176,17414,2823
-29176,17414,2823
-28920,17670,2311
-30200,19462,2311
-31224,20486,2567
-30968,22022,4615
-30456,23558,5895
-30968,26374,6151
-31480,27910,6407
-32248,28166,6663
-32248,28422,5895
-32504,28166,3079
32520,27142,-249
31495,26630,-1785
30215,26630,-2809
28935,28934,-3833
28679,30470,-4601
23303,-10234,11527
18184,13318,29704
11528,-30458,-19192
5640,-12026,-1784
1544,4614,24073
1545,15878,-12535
7433,19718,4873
12042,12038,-1015
12553,-9978,-29432
9225,15622,-19192
3592,-29178,-18169
1543,1798,-7417
6918,-18170,22534
17926,-26618,8966
28422,-25850,12806
-31738,-20474,23046
-30970,-14074,-29690
-30970,-9466,-16634
-30970,-5882,-4090
-32250,-762,5894
32007,4102,14343
32519,6918,21511
-31737,7942,27655
-31225,10758,-32249
-30969,12806,-30713
-31737,15622,-25337
-30969,15878,-21753
-30713,17414,-18425
-30969,20230,-16633
-31225,21510,-14585
-31481,21510,-12281
-31481,22534,-10489
-30713,24838,-8697
-30201,26118,-7673
-29945,26886,-5625
-29945,27910,-3833
-29177,30982,-1785
-28153,-31482,7
-27896,-29946,1543
-28152,-28154,4103
-27896,-24058,6407
-27640,-19706,8711
-27128,-16122,12295
-26360,-12282,16391
-26360,-7162,19719
-26616,-1274,22791
-27128,2566,25864
-27128,5894,29448
-27384,9734,32520
-26360,12038,-32248
-27896,15878,-30200
-29176,16646,-29176
-30712,17926,-27384
-31224,19462,-26616
-31736,19462,-26616
-32504,17414,-26616
31496,14342,-27128
30984,10758,-30200
31240,6662,32008
31240,518,28168
31240,-5114,25351
31240,-9978,21767
31496,-15098,17159
30984,-19962,13575
30216,-25338,10759
30472,-29434,7687
30472,-32762,3847
30472,28678,1031
30472,25350,-505
30727,22790,-2041
30983,21254,-4089
30983,18950,-7161
29703,15878,-8441
29959,14342,-8441
30215,14086,-9721
29959,12806,-11513
30983,12038,-11257
31239,11270,-10745
30983,10758,-10233
30215,10502,-10745
30471,10246,-10233
30983,11014,-8441
30983,11782,-5113
30983,12294,-3065
30471,13062,-1529
30215,13830,775
29960,14854,4871
29960,16390,7687
30728,17670,8967
31752,17670,10247
32008,17926,12039
32264,18182,12807
-31480,18694,12551
-30456,19206,11527
-30968,19462,11783
-31736,19718,11783
-31736,19718,11783
-31736,20230,11783
-31992,20230,11783
-31736,20742,11015
32008,21766,9735
32008,22278,9735
32008,23046,9479
32008,24838,9735
32264,25606,9735
30984,25862,8199
30216,26118,5895
29960,25606,3079
29960,24326,263
29704,22790,-1785
29191,22278,-4089
28167,22022,-5881
27399,22534,-7417
25351,25862,-7929
23303,-30970,-3577
19207,-14330,7175
13320,7430,22280
6408,27142,-28664
-1272,-22523,-12280
-7160,-8443,11528
-6647,3589,-24567
1801,7686,-5367
9225,-2042,-8696
11017,-27642,26632
11529,27910,13832
4105,20486,-22777
1543,-14074,-10746
3078,-32762,20230
12294,26118,5638
25350,28934,7942
-31738,-29690,18694
-30202,-22010,32518
-31482,-14842,-19706
-31482,-9466,-6906
-31226,-3578,3590
-31481,1798,12551
-31225,5894,20231
-31481,7942,25351
-31737,10502,30215
-31225,13318,-30713
-31993,15366,-27129
-32249,16390,-24569
-31993,17926,-21753
-31481,19462,-19193
-30713,20742,-17657
-30457,21254,-16377
-30969,22022,-15353
-31225,23814,-12793
-30713,25094,-12025
-29689,25094,-12025
-29689,26374,-10489
-29689,27654,-9721
-29689,29702,-8441
-29177,31238,-7673
-27897,32518,-6393
-27385,-30458,-5113
-27129,-27130,-3321
-27129,-24058,-1529
-26617,-20986,263
-25080,-16890,2823
-24824,-11770,5127
-25080,-7930,7687
-25592,-4090,9735
-25592,-250,12039
-25848,3846,14344
-26616,6918,15368
-27640,9222,16904
-28920,12294,19464
-28920,14854,21512
-29432,17158,23048
-31480,17670,24072
32264,17158,23816
32008,16646,24072
32264,14086,23816
32008,12550,23304
30984,6406,19464
30728,2822,16648
30472,-1530,14599
30472,-6650,12039
30216,-11514,8199
30216,-14330,6407
30216,-17914,4871
30472,-22266,2567
30472,-25594,-249
29703,-27898,-2809
29447,-30202,-3321
29447,-31994,-3833
29447,31238,-5113
29959,30214,-6137
30215,29446,-7161
29959,27654,-6905
29191,26374,-7929
28935,25862,-8441
29447,25862,-8185
30215,24838,-7929
30215,23814,-6649
30471,23814,-5625
30471,24070,-4345
30727,24070,-2553
30983,23302,-1273
29959,23302,2055
29960,24582,3847
30216,25350,6407
31240,25350,8455
32008,25350,8455
-32760,25350,8199
-31992,25350,8199
-31224,25094,8455
-30712,24838,8455
-30712,25350,8199
-30968,25606,8199
-30968,26374,9479
-31224,26630,9479
-31480,27142,9735
-31224,28166,9991
-32248,29190,9991
32520,30214,9991
31240,30982,9735
30728,32006,9479
30728,-31994,9735
30984,-30458,9991
31240,-29690,9991
30984,-29178,9479
29448,-29178,7431
28936,-29690,5895
27656,32518,1287
28424,31750,7
28168,31494,-2041
27143,-32762,-4089
26119,-27642,-3065
22279,-14586,6151
16392,5638,20488
9480,28166,-29944
3336,-17914,-13560
-3320,-1787,9736
-6647,12805,-25335
-2039,21253,-1271
6409,16646,3081
10506,-2298,-15096
8969,28678,5384
3593,-15610,7943
-1272,9989,12807
-1017,-17147,-31482
7942,-29434,13062
20486,-30458,9222
29446,-25594,16134
32262,-18170,29446
-32506,-11258,-19962
32518,-4858,-6650
32518,-2810,-4602
29958,5382,12807
30215,8966,22791
31495,12550,29703
32519,15366,-31225
32519,18182,-26873
31751,19974,-21241
31751,22022,-16889
32519,22790,-15353
32519,24326,-13305
-32761,25606,-9977
32519,26886,-6393
32263,27654,-6137
-32249,28934,-5625
-30969,30214,-2041
-31737,30982,263
32264,32262,263
32264,-31738,519
-31480,-29690,3079
-30456,-28154,6151
-30200,-25850,7687
-30712,-23546,7943
-30200,-20474,10247
-29176,-17146,14599
-27896,-13306,17159
-27640,-12026,16903
-27640,-4090,22023
-27384,-250,26375
-27384,4358,30472
-28408,7942,32520
-29432,12038,-31224
-29944,15110,-27640
-29944,17670,-24824
-30712,19974,-23800
-32248,20998,-24056
31752,21766,-21496
30984,22278,-19448
30728,22278,-19192
30216,20742,-20216
29704,17414,-21240
29448,13062,-22264
29448,8710,-25592
29448,4102,-29432
29192,-1274,-32249
28680,-6650,30983
28680,-10746,27911
28936,-15098,24583
29448,-19450,22023
29960,-23290,20487
29960,-26362,18439
29960,-26874,16647
28680,-30970,14855
28424,32006,14599
28424,30470,13831
28424,29190,12039
28680,27142,11015
28424,25606,10759
27656,24582,10759
27912,24326,11527
29192,24070,11527
29960,22022,12551
29704,21510,14343
28936,21254,15367
28936,21510,16135
28936,21510,18695
28936,21254,21255
28936,21254,22791
29448,21254,23559
29960,21510,24839
30216,21766,26631
30472,22022,27655
31752,22022,27399
-32248,22278,27143
-31736,22534,27143
-31736,22790,27143
-30968,23046,27655
-31736,24070,28935
-31736,24838,29447
-32248,25350,29447
-32760,26886,29959
32520,28166,30983
31752,29446,31495
31240,30726,31495
31240,32006,31751
31240,-31482,-32505
30984,-30458,-32249
30984,-30202,32263
29704,-30970,29191
28936,-32506,25863
28936,30982,23303
28680,29958,21511
28168,30214,20231
27912,30982,18695
26376,-32762,18439
23560,-23034,23303
17928,-5114,-30457
11784,17158,-14072
6664,-27898,2312
777,-11002,19976
-4855,3845,-19959
-5623,7685,-10743
3337,16646,22281
9738,5894,17929
10762,-20986,-14584
7945,3334,-5368
2824,24326,-3321
519,-8698,11014
4359,-27130,-22522
15110,-32250,31238
26886,-29946,-30970
32262,-22778,-18682
-31994,-14586,-4090
-31994,-7930,9478
-31993,-2810,21766
-32249,2566,-32249
32519,7942,-22777
32007,12038,-15865
32263,13574,-9465
-32505,15878,-4345
-31993,18950,1031
-31992,21510,4615
-31992,21510,6407
-31736,22278,9479
-31992,24326,11783
-31736,26374,14343
-30968,26630,14855
-30968,27142,17671
-31224,28166,19207
-31480,30214,20487
-31480,31238,21255
-29944,31494,22535
-29432,-32762,24839
-29432,-29946,25607
-29432,-28154,26119
-29432,-27386,27399
-28920,-24826,29959
-27896,-20474,32519
-27384,-16122,-30713
-26360,-13050,-28153
-26104,-9466,-24825
-25848,-3834,-20729
-25848,2054,-17400
-26616,5382,-15096
-27640,7942,-12280
-27640,12294,-9464
-27640,16902,-7160
-28664,18694,-5624
-30456,19974,-3576
-31736,21766,-1528
-31736,24070,-504
-31480,24070,-248
31240,22534,520
30729,20486,520
30729,17926,-504
30472,13318,-4088
30216,7686,-8696
29704,2566,-11512
28680,-1530,-13049
28936,-5882,-16633
29448,-11770,-20729
29960,-16122,-23289
29704,-19450,-25081
29448,-22522,-27897
29704,-26106,-29689
29192,-29178,-31225
28936,-30970,-32249
28680,32518,31495
28680,30214,29191
28168,27910,27911
28424,26886,27911
28424,26630,27655
28680,24838,26375
29704,23302,25863
29448,22534,25607
29448,22790,26631
29448,22022,26887
29192,20230,27911
29192,20486,29703
29960,20742,32263
30216,20486,-31225
30216,20998,-29177
30472,21766,-27385
30728,22534,-24825
30728,23558,-22521
30472,23814,-22009
32264,24582,-21497
-31480,25350,-20729
-31736,25350,-20729
-31480,25094,-20985
-30968,25862,-21753
-30968,26886,-21241
-30712,27654,-19449
-30456,27654,-19193
-31480,27910,-19449
-32248,29190,-19961
-31992,30726,-20217
-32248,31494,-20217
-32248,31750,-20473
-32760,-32250,-19961
31752,-30714,-20217
32008,-30714,-19961
30728,-30714,-22777
30984,-30458,-25337
30216,-31482,-28153
29448,31238,-30457
29448,30214,32263
29448,29958,30727
27912,32006,29447
25608,-29690,29703
23048,-19962,-30201
17672,262,-16632
10760,25862,776
3849,-18426,16392
-2807,-2811,-31480
-8183,9477,-9207
-7927,16133,12041
1034,13830,21001
9482,-7674,3848
11530,21510,29448
8201,-24570,-32249
2568,-2298,-29178
1799,-32506,-10234
6406,19206,28934
16390,18182,21254
27654,25350,29702
31238,28166,-31482
-30458,-22010,-4090
-30714,-13562,11526
-31225,-5882,24582
-31225,1030,-28921
-30969,6150,-17913
-30969,10246,-10233
-30969,14086,-4089
-31225,16902,775
-31992,18950,6407
-31992,20742,10503
-31736,23046,13063
-31992,24838,15623
-31736,25862,18695
-30968,26886,21255
-30712,28166,22791
-30200,29958,24071
-29944,30470,25863
-29432,30982,27911
-28664,-32250,29191
-28920,-30970,29703
-28664,-29178,32263
-27896,-27130,-30713
-27896,-25082,-29689
-26872,-22010,-28153
-26360,-20986,-26873
-24312,-15354,-20985
-24056,-11514,-18169
-24312,-6906,-16121
-24056,-2042,-13049
-24056,2566,-8184
-24824,7174,-4344
-24568,12294,-1016
-24568,16902,2056
-25079,19974,5640
-26103,22534,8200
-27895,25350,8968
-28151,27654,9736
-27895,28934,11528
-29943,28678,12296
-31735,28166,11528
-32503,26630,9480
-32759,22022,7944
32009,17414,5384
31497,13062,2056
31241,7942,-2296
31240,1542,-7160
31240,-4602,-11001
30984,-9210,-15097
30728,-13818,-19193
30984,-16122,-20217
30728,-23546,-25081
30728,-27130,-27129
30472,-29178,-29689
30728,-31994,-31481
30984,30214,32263
30728,27910,30983
30728,26886,29447
30984,25350,27143
30984,22790,26631
30984,22022,26631
30728,21254,25607
30728,20230,23559
30216,18438,23815
30216,17414,24071
30984,17670,25095
31496,17158,26119
31496,16134,27143
31240,15622,28935
31240,16134,30215
30984,16902,32519
31496,17158,-30457
31752,17414,-28665
32008,18182,-26873
32008,18694,-26105
31752,18950,-25337
32264,19206,-24057
-32248,19206,-24057
-30200,19206,-24057
-29944,19206,-23801
-29944,20742,-24057
-29688,21510,-24057
-29432,21510,-23545
-29944,21510,-23289
-30456,22534,-23033
-30456,24070,-22777
-30456,24070,-22777
-31480,24070,-23545
-31736,25862,-23801
-31736,27398,-23801
32520,27910,-23801
31496,28678,-24057
31752,29446,-25593
32264,30214,-27641
32008,28678,-30457
30472,26374,32263
29192,25862,29703
28424,26374,27911
28168,28166,27143
26120,-31738,28679
24584,-29178,29703
15368,5126,-12280
8712,31238,6664
777,-12026,23304
-6135,3845,-24055
-10487,12549,-4599
-6903,12805,10249
2314,6,8201
9482,-30970,-20984
11017,-7930,-3833
7432,9990,-761
2311,-29434,7430
1543,12294,32262
7942,3078,11782
19974,5382,11270
30726,16134,24070
-30458,27654,-25594
-30714,-28410,-7674
-30714,-19450,9734
-30969,-10234,24582
-31225,-2298,-28666
-31225,3078,-18937
-31737,6662,-11257
-31737,11014,-3321
-31737,15622,2567
-31736,16646,4359
-30712,19206,12039
-30712,20742,15367
-30968,22790,17415
-31224,24582,19719
-31224,24582,22023
-31224,25862,24327
-30200,27910,26375
-29688,28934,27655
-29432,29446,28679
-29688,30214,30983
-29432,32518,32519
-28664,-30202,-31225
-27640,-28666,-29689
-26872,-27130,-27385
-27128,-23802,-25081
-26872,-19706,-22777
-26104,-16122,-19449
-26104,-12538,-16121
-25592,-7162,-12025
-24824,-1018,-7929
-24568,3846,-3832
-24568,7942,-248
-24568,12806,3336
-25079,17926,6664
-25591,19206,7688
-26615,23558,11784
-27127,26118,13832
-28407,29190,15112
-29687,30726,15880
-30455,30470,16136
-31223,28934,16136
-31991,26630,15112
-32759,23558,12040
32265,18438,8968
32265,12294,5384
31241,5894,264
30985,518,-4856
30984,-5626,-9465
31240,-11514,-12793
30728,-16378,-15609
29704,-20474,-20217
29960,-25338,-23545
29960,-29434,-26361
30216,-32250,-28153
30728,30982,-30201
30472,28422,-32505
30472,25606,31495
30216,23302,30215
29704,21766,28423
29448,21254,27911
29704,18694,26375
29960,17670,26375
29704,16646,26119
29960,15878,25863
29704,14854,26119
30216,14086,26119
30472,13830,27399
30472,13830,29191
30472,13574,30983
30472,13318,-32505
30216,13574,-30457
30472,15366,-28409
30472,15366,-26873
30472,15110,-25849
30984,16134,-23801
32520,17414,-22265
-31736,17670,-22009
-30968,17670,-22265
-30712,17414,-23033
-30968,18438,-23033
-30968,19974,-22777
-31224,20486,-21497
-31224,20742,-19961
-30968,21254,-19961
-30456,22022,-20217
-30712,23558,-20473
-30968,23558,-20729
-31480,24582,-20729
-31480,26118,-20473
-31992,27398,-20473
32008,27654,-20729
30984,27654,-22521
31240,28422,-24825
30472,28422,-27385
29704,26374,-29945
29448,24326,-32761
29192,24582,30471
28424,26630,29191
25608,29702,29191
22792,-26874,-31481
18440,-7930,-18425
11528,20742,1544
3337,-17658,21000
-4855,261,-27383
-11511,11781,-9975
-12279,14085,4617
-5366,4357,7177
4618,-23034,-12792
10761,-1018,7687
11785,-14842,-9209
4360,-26874,16646
519,7174,-31738
3590,-6906,6149
14598,-7418,-2299
26885,2566,6406
-31994,15110,24582
-30714,26374,-21498
-30714,-27898,-3066
-31482,-17146,13318
-31737,-8442,28422
-31993,-2042,-24314
-31737,3334,-14841
-30713,8454,-7417
-30713,12806,-761
-32249,15110,5383
-31992,17414,9991
-31224,20486,13063
-30968,22790,16647
-31224,24582,20743
-31480,25350,23303
-30456,27654,24583
-29432,29702,25863
-29176,30726,28935
-29176,31494,30727
-28920,32262,30471
-28152,-29946,-31737
-28408,-28410,-29433
-27896,-27386,-27385
-27128,-24826,-25849
-26616,-21242,-24057
-26360,-17914,-20217
-25336,-15098,-16377
-23800,-10234,-13561
-23032,-4346,-9721
-23544,518,-5880
-23544,4870,-1272
-23800,9990,2056
-23543,15110,4872
-23287,20230,9224
-24311,23302,12808
-25335,25862,14600
-25847,28934,15112
-27127,31494,16392
-29175,31750,17928
-29431,31750,17928
-29431,31238,16648
-30199,28678,14600
-32759,23814,11528
31753,18438,7944
31497,17158,6408
31497,7430,-1272
31752,774,-5880
31752,-5882,-10489
31496,-11258,-15353
31240,-16378,-20473
31240,-22010,-24313
30728,-26874,-27641
30216,-30202,-31225
30216,32262,31751
30216,28678,29191
30728,25606,27143
30984,23046,24839
30216,21510,22279
30216,19974,21511
30984,17926,20999
31496,16390,19719
31240,16390,18695
30216,14854,17415
30216,13318,17159
30216,12294,17159
29960,12038,16903
30216,11782,17671
30472,11270,19463
30728,10502,20743
30984,10502,21255
30728,11270,23815
30728,11782,26119
30472,12294,28935
30472,12294,29959
31496,13318,30727
31752,13574,31751
31752,13318,-31993
-32248,13574,-31993
-30968,14086,-32249
-30200,14854,-32505
-30200,15366,-32505
-30200,15878,-32505
-30200,16646,-32249
-30200,17670,-30969
-29944,18182,-30713
-29688,18694,-30969
-30200,19718,-30713
-31480,20742,-30713
-31736,21766,-30969
-31992,22278,-30969
-32248,23302,-31481
32264,24838,-31481
31496,26118,-31737
31240,26118,-32761
31496,26118,32519
31240,25350,26631
30984,23558,23559
30216,22534,22279
28936,22790,20487
27656,25606,19207
25352,-31994,21255
20744,-16634,32007
13064,6918,-17144
3848,32262,-1528
-3320,-11771,14344
-9463,4357,-31991
-11767,13317,-10999
-6903,14597,2313
2826,-2298,-6904
10505,26886,23560
13065,-20730,-28409
9736,-3578,-24570
6407,25350,-12026
7942,6150,21254
15878,-506,7941
27398,4102,11014
-30202,14854,24326
-28922,26886,-24314
-29946,-29690,-7674
-30202,-27898,-2810
-30202,-13050,19718
-30969,-5114,30726
-30457,-762,-25594
-29945,1798,-18937
-29433,6150,-13049
-29433,10502,-7673
-29945,12806,-3321
-30201,13318,263
-30456,15110,2311
-30456,18182,5127
-30712,19974,7687
-30712,19974,9223
-29944,20742,10759
-28920,23302,13319
-28408,25094,15111
-28664,25350,16391
-28664,25350,16647
-28408,28166,18439
-28152,31238,20999
-28152,-32762,22791
-26872,-31738,23559
-26104,-28666,25095
-26360,-24570,28167
-26104,-20730,31239
-25848,-20474,32007
-25336,-12538,-28921
-25080,-6138,-24569
-24824,-1018,-20729
-24568,3078,-17400
-24568,7430,-14584
-25848,12806,-11000
-27384,16646,-8952
-27384,18438,-6904
-27128,20230,-5368
-28664,23046,-3576
-30456,24070,-2808
-31480,23558,-3064
-31736,21510,-3320
-31736,19462,-4088
-32248,15878,-6648
-32248,10502,-9976
32264,4358,-14584
31752,-1530,-18681
31752,-6906,-22777
31752,-12538,-27897
31752,-18426,-31481
32520,-23034,31495
-32248,-26362,28423
-32248,-30714,24583
32520,-32506,23815
32008,27654,20231
32520,26374,18951
-32760,24582,16903
32520,21766,15367
32264,19718,13831
31752,18694,13063
31752,17926,12039
31752,16134,10759
32008,15110,11015
32264,15366,11271
32520,15366,11271
-32760,14598,12295
-32760,14086,13319
-32760,13830,14855
-32504,13830,15879
-32504,14086,17927
-32248,14342,20231
32520,14342,20999
32520,15110,23047
-32504,15366,24583
-31480,16134,26119
-30712,16390,26887
-30200,16390,27143
-29432,16390,26631
-28920,16646,26119
-27896,16390,23559
-27640,16134,23303
-27384,16390,23047
-27640,16646,22279
-27640,17670,22279
-27640,18438,22279
-27640,19462,22023
-27640,19974,22023
-28664,20998,22023
-28920,23302,22279
-29432,25862,23815
-30968,29190,25607
31752,-31738,27655
26632,-24826,29447
22280,-16890,32263
17928,-10746,-31993
11784,-5114,-31993
4616,262,-32248
-2552,6661,-28920
-7672,13829,-19704
-11512,20485,-8952
-14072,29189,2824
-15351,-24827,15624
-16375,-15099,28680
-17399,-13051,-31736
-22775,-7931,-14328
-29431,-5627,-7928
26889,-4347,-4600
18953,-4347,-3064
17161,-9211,-8696
21001,-23547,-30200
27657,18437,3336
-30711,-13819,28423
-23032,19205,-11257
-9209,-2555,26886
10503,-14330,12038
31751,-17402,11270
-20217,-14842,16902
-17145,-10746,21254
-16889,-7674,24582
-16889,-5114,28678
-16889,-2298,32518
-16633,262,-30713
-15865,2054,-29689
-14841,3078,-28665
-14585,3590,-26617
-14841,4358,-25849
-13817,5382,-26105
-12281,5638,-26617
-12025,5894,-26361
-10489,5638,-26361
-9721,5638,-27129
-7673,5382,-28921
-4857,4102,-30713
-3577,3078,-31737
-2553,2822,32263
7,1799,29191
3079,519,26631
4871,-505,25094
6407,-1273,23558
8455,-1785,20742
10759,-2809,18182
13319,-3065,17414
14599,-2809,17158
16391,-1017,16902
17671,775,16391
17415,2567,16903
16391,5895,20487
14599,9479,24071
14087,14343,27655
13063,18951,32519
9223,23047,-27641
5127,27911,-21497
2055,-32505,-16377
775,-31225,-15097
-5113,-24570,-4857
-9977,-20474,775
-13304,-17402,5127
-16120,-15866,8455
-20472,-15866,11015
-24312,-15610,13831
-26872,-15610,14855
-27128,-17402,14599
-28408,-20986,13831
-30712,-24058,13319
-31224,-25594,14087
-30968,-27130,18439
-30968,-29434,26375
-32248,-30714,-29689
-32760,-30714,-19705
-32760,-30970,-9977
-32760,-31738,2567
30985,-31738,17927
25609,-28154,-30969
20489,-18682,-10233
15369,-3322,14343
7690,16134,-26616
-2038,-23291,-5624
-11254,11013,7945
-13557,22533,11785
-25845,27141,15882
30219,773,16139
18955,17157,15115
6411,19717,15883
-7157,19460,16651
-22005,19204,16907
-30197,19204,16907
-18165,18948,16395
2571,18949,16395
24843,19205,16395
-18165,14853,16651
2059,-13050,16650
19979,6150,9226
-30709,26630,-16119
-20214,-10746,8200
-14838,23046,30728
-13303,-3578,-7673
-13304,-26362,24327
-12792,20742,-2809
-12537,5126,-26873
-11001,-7674,16902
-9977,-19706,-1786
-9722,-28666,-17658
-9210,30214,-31226
-8954,27910,29958
-7418,17670,8454
-7418,12806,-2298
-7675,9222,-11770
-6651,6150,-22266
-5115,1542,32006
-4091,-3578,20485
-3067,-9466,7941
-1787,-16378,-5883
260,-24313,-20731
1540,-30969,32005
2564,28679,20997
4356,23303,14341
6916,18183,12293
7684,13063,11781
7684,9735,11781
7940,7431,12293
9988,6407,12549
10756,6151,12037
9732,7175,11525
8196,11015,11269
7940,15879,11781
6916,21511,12037
4868,27911,13573
3076,-28409,24581
1796,-24825,29701
-2300,-7162,-8955
-5116,3846,8710
-8443,16902,27654
-11003,29958,-18682
-13819,-22778,1542
-16890,-11514,19974
-19450,-506,-28666
-22010,9222,-13305
-23290,16902,7
-25593,21510,11271
-27129,25862,19719
-27641,29446,27399
-28409,31750,-31737
-28921,32006,-26617
-29177,32262,-23545
-29689,32518,-21241
-30969,32262,-19193
-31225,31494,-17401
-31481,30214,-16633
-31481,29958,-16377
-31481,29190,-15609
-31481,28422,-14841
-31481,26886,-14585
-31737,25862,-14585
-32249,25606,-14585
-31993,25094,-14841
-32505,23814,-14841
-32249,23302,-14585
-32249,23046,-14585
-30969,22534,-14585
-30969,22022,-14073
-32249,21766,-13305
-32761,21510,-12793
-32761,21510,-12537
-32761,21766,-11769
-32505,22022,-10745
32263,21766,-9721
31751,21510,-9465
31751,21510,-9209
31751,21510,-9209
31751,21254,-8697
32263,21254,-8185
32263,21510,-8185
31495,21254,-8185
31495,20998,-7417
31495,20742,-6905
31495,20486,-7161
32263,20742,-6905
32007,20486,-6905
30983,20742,-6649
31239,20486,-6905
30983,19974,-7161
31495,19718,-7161
31495,19718,-6905
31495,19718,-6905
32263,19718,-6393
32519,19718,-6393
32263,19206,-6649
31751,19206,-7417
31495,19462,-7673
31495,19206,-7417
31239,19206,-7417
30983,18694,-7673
30727,18694,-7929
30727,18694,-7673
30983,18694,-7673
31239,18950,-7417
30983,19206,-6393
31239,19206,-6137
31239,19206,-5113
31239,19462,-3065
31239,19462,-1017
31495,19206,775
31752,19206,2311
30472,19462,2823
29960,18694,5383
29448,17926,7175
29448,17926,8199
29704,17670,8711
30728,16902,8455
32264,17158,7943
-31736,17158,6151
-31224,17414,4103
-31224,17926,3079
-31224,17414,2055
-30968,17414,1799
-30712,17158,1031
-30712,17926,519
-30712,19206,519
-31480,19718,519
-31992,19462,-505
-31737,20742,-505
-31993,22278,-249
32519,24582,263
31240,25606,519
30216,26374,7
30216,28422,7
30472,29190,-249
30983,28934,-2297
30727,28678,-3321
30727,28934,-5625
29191,29190,-6393
27399,31750,-7673
25607,-26106,-5625
21255,-11258,3335
13576,8710,15880
4104,27398,24584
-3320,-23291,-31992
-6904,-10491,-16888
-7416,-2811,3848
-3319,-2555,19720
5641,-19194,14600
13577,13318,-14328
16392,-28154,5127
13576,-6650,15878
9735,24326,-32762
9734,7942,3590
14598,4358,-7674
25093,12294,-1786
-30971,24582,12294
-27898,-28922,28166
-28922,-18170,-22010
-30458,-8954,-8186
-31482,-506,3590
-31737,2566,7175
-30969,12038,22023
-31225,15878,28167
-31481,19974,-32505
-31737,23046,-28921
-31737,25350,-24825
-31993,27142,-21497
-32249,28934,-18937
-32505,30726,-16889
-32249,32262,-15353
-31481,-32250,-12537
-31225,-31226,-11513
-31225,-29690,-10745
-30969,-28410,-9209
-31225,-27386,-7929
-31225,-26362,-6649
-30457,-24826,-5625
-29689,-23034,-4345
-29945,-22010,-3577
-29945,-20474,-1785
-29433,-17402,263
-28920,-14330,1287
-29176,-12026,3335
-28920,-9466,5639
-28920,-5882,7687
-29176,-4090,8711
-29176,1542,12296
-29944,4870,15112
-29432,9222,17672
-29176,13062,19976
-29688,15622,22024
-31480,16902,23048
-31992,19206,24840
-32248,21766,25864
-32504,23046,26632
31752,23814,28168
30472,24326,28424
30216,24582,28680
29448,24582,29448
27912,23814,29704
27400,22022,29448
27400,19462,28424
27400,16390,26632
27912,13062,24328
27656,9222,22024
27912,5382,19976
27912,1542,17160
27400,-2042,15111
27144,-5370,13063
27144,-8698,10759
27144,-9722,10503
28168,-14074,7687
27144,-16378,5895
27144,-18170,5127
27400,-19962,4615
27400,-20730,4359
27144,-22266,3079
26888,-24314,2823
27400,-25082,3335
27144,-25594,3591
27912,-26106,5383
27912,-26362,7175
27656,-26618,8711
27912,-26618,10759
27144,-26874,12295
26120,-26874,14087
26632,-27130,16135
27144,-27130,17159
27400,-26874,17927
27912,-27386,17927
28424,-28666,17159
30216,-28922,15879
31496,-29434,13831
32008,-29946,13063
31752,-30202,12807
31496,-30202,13063
31752,-29690,13319
31496,-29434,12807
31496,-28922,13063
31752,-27642,13063
31240,-26874,13319
30728,-26362,13831
30472,-24570,14087
30216,-22522,14599
29960,-21498,14855
28936,-20986,15111
27912,-19962,14599
27144,-19450,12807
27144,-20730,9735
27400,-22522,6663
26632,-24058,4615
25608,-24570,2311
23816,-24058,775
22280,-20474,-249
19975,-9210,6919
15624,10502,20488
8968,-31482,-28408
1800,-11514,-12024
-4600,5637,7177
-8439,20997,-31991
-9975,25349,-22775
521,27398,-247
6409,11270,-14839
7433,-20730,10248
3849,774,15368
-2040,23301,18951
-3321,-5883,-27130
2822,-20218,11782
14598,-22778,5126
24838,-19706,11014
28934,-12538,24326
29958,-4602,-25594
30470,1286,-12281
29958,5638,-761
28934,10246,9735
28423,15366,18951
28423,19206,26119
28679,20742,30983
28935,22534,-30201
28935,25606,-24825
28679,27654,-20985
28679,28934,-18425
29447,29958,-15865
29959,32006,-13049
30215,-31738,-11001
29191,-31738,-10745
29447,-30714,-8441
29959,-29434,-5369
30471,-26618,-3833
30471,-25082,-3065
30215,-24826,-1529
30727,-23290,519
32008,-19962,3079
-32248,-16890,4615
-32504,-15354,5895
-32504,-12794,8711
-32248,-8186,11527
-31992,-3066,14343
-31992,774,17416
-31480,4614,21512
-30456,10758,25608
-30456,15622,28936
-30456,19462,31240
-31480,22278,-31480
-32504,26118,-28408
32520,29446,-26872
31752,30470,-26104
30728,30982,-24568
29960,32006,-23288
29448,32262,-23032
28424,31750,-23032
27144,25606,-25848
26376,20742,-27896
26376,16902,-30712
27656,12294,31752
27656,5382,27656
25608,-1530,23047
24072,-6906,19463
24328,-11002,15879
24328,-16634,12551
24328,-21498,9735
24072,-24314,7687
24072,-27130,5383
24840,-30970,2567
25096,30982,519
24584,29190,-761
24327,28166,-2041
24327,26374,-3065
24839,23302,-4601
24583,21766,-5881
23559,21766,-5881
22791,20742,-6137
22791,18694,-6649
24071,17670,-6649
24071,17670,-6393
23047,17670,-5625
23559,16390,-4601
24327,15110,-3577
24839,14854,-1529
25095,15366,519
24328,15622,2311
23304,15366,3591
24072,15366,5895
25608,15622,7687
25864,16390,7943
25864,16390,8711
25608,16134,8967
27400,16390,8711
28936,16390,8711
28680,16646,8711
27400,16646,8711
27144,17158,8967
27400,17414,8967
28168,17414,8967
28168,18950,9223
28168,19974,9479
27400,20742,9991
26632,20998,9479
26632,22534,9479
26632,24582,9735
25864,24582,10247
24840,25094,9479
24328,25094,6663
24072,24582,2823
23048,22534,519
23048,21254,-249
23047,20742,-2553
22023,21510,-5113
20743,23814,-5625
18439,30214,-2553
14855,-19962,7687
9480,1286,21512
2824,21766,-29688
-3576,-27131,-12792
-9464,-13307,10248
-9719,-1531,-26872
-4599,5893,-4343
2569,-250,-2808
5897,-19706,-24056
5641,9990,-7160
-248,32005,-4089
-5113,-5115,4870
-4601,-28155,32006
3846,27398,12038
16134,27910,10502
18182,29446,11782
27142,-25338,-32250
28422,-18938,-17658
28422,-13562,-5882
27654,-7418,4870
26119,-2554,14342
26631,518,22791
27911,3590,28935
27911,6150,-32249
27143,8454,-27129
26119,9990,-23289
26119,11014,-20729
26375,11782,-18937
26887,13318,-16377
27655,14598,-13561
28167,14854,-12793
28167,15878,-11513
28167,17158,-10233
28935,18182,-8185
29191,18694,-7417
29447,19974,-7417
29959,21254,-6393
30471,23302,-4089
30727,24582,-2809
32007,25862,-2041
32007,26886,-1785
32263,31750,1287
32520,-30970,4359
-31736,-27642,5895
-30712,-22778,8199
-30968,-18170,11527
-31736,-14330,14855
-31992,-10490,16903
-32248,-6394,19207
-32248,-1786,22791
-32248,2054,26120
32264,4102,27144
31752,6406,28424
29960,9222,30728
28936,11014,-32248
28424,11270,-31224
27656,11270,-31480
26376,10246,-31224
25096,6662,-31480
25352,2310,32520
25352,-1530,29703
25352,-5882,26375
24328,-10746,24327
24328,-16122,21767
24072,-21242,18439
23560,-22266,16903
23816,-28666,13063
23560,32518,11527
24072,28934,9223
24840,26886,6919
24840,24838,5895
24328,22022,5383
23560,19718,4103
23560,18950,1799
23560,18438,1031
23560,16390,1543
23304,15110,1287
23560,14854,1287
23560,14342,1287
23816,13318,1543
23816,12294,2055
23560,12038,2823
23560,12038,4615
24328,11782,6663
24072,11782,8199
23560,11782,9735
23304,11526,11271
23048,11782,12807
24072,11782,14855
24840,11270,15367
24072,11270,15111
24584,10502,14343
25352,9478,14087
27912,8966,12551
28424,9222,11783
27912,9478,12295
27656,9478,12807
28168,10246,12807
28936,11014,12807
29192,11782,13063
27656,12806,14343
27144,14086,14599
27656,15366,14599
27400,16390,14599
26888,17926,15623
25864,19718,16391
25096,20742,16135
25352,20742,14599
25864,20742,11783
25352,19206,8967
25096,18182,7175
24328,16902,4615
22024,16902,1543
20232,18182,263
18184,24326,2823
16648,27142,4103
9992,-5370,25863
4360,16390,-24056
-1016,-31483,-7160
-6648,-16123,16136
-9719,-2811,-19960
-4343,4613,3593
3594,774,7689
6666,-19706,-15096
5385,11526,3592
-1527,31749,4103
-5880,-7419,10502
-4089,-31483,-30202
4358,23558,14598
16134,23302,11782
24582,28166,20486
27910,-30970,-31994
28166,-24314,-17402
27654,-18426,-4346
27142,-13306,6150
26631,-8698,16134
26631,-4346,24838
27399,-1530,30982
28167,774,-29433
27655,3078,-24569
26631,4102,-22777
27399,6918,-16889
28167,8198,-14841
28679,9734,-12025
28423,11270,-9209
28167,12038,-8185
28423,12806,-7417
28423,13830,-6137
28423,15110,-4089
28935,16134,-2297
29191,17414,-1529
29703,18950,-1017
30471,20486,1031
30472,22790,2823
31240,25350,4103
32264,27654,5127
-32504,30470,7687
-32760,-31226,10247
-32760,-27642,12039
32520,-23546,14087
-31992,-18426,17671
-31736,-13562,22023
-31736,-8954,25351
-32504,-5114,27399
32520,-1274,29959
31752,262,31496
31752,5126,-30456
30984,6918,-29944
29704,8454,-28920
29704,9478,-26616
29448,9734,-25848
28424,8454,-26360
26888,6150,-27128
25864,2310,-28920
25608,-1530,-30457
25864,-6394,31751
25864,-11514,28167
25608,-16634,25351
24840,-22266,21767
24840,-27130,18183
24584,-31738,14855
24584,29702,12295
24840,26374,10759
25352,23302,8711
25352,20742,6663
25352,18438,5127
25352,16134,3591
25608,14854,3079
25608,13318,1543
25352,11782,519
24584,11270,519
24328,9478,-1017
24071,8710,-2041
24071,7942,-2041
24071,7174,-2041
24071,6150,-2041
24839,5638,-1273
25863,5382,263
25608,4870,1031
25608,4614,2311
25608,4614,3847
25352,4614,5639
25608,4870,6919
26120,4870,8455
26120,4870,10247
26376,4870,11015
26632,4870,10759
27912,4870,10503
28936,4614,10503
29960,4870,10247
30216,5638,10759
30216,5894,11015
30216,5638,10759
29960,6406,10503
29704,6918,10759
29704,7686,11271
29448,9734,12039
28936,10246,11783
28680,11526,11783
27912,13318,12039
27656,14854,12039
26888,15878,11783
26632,16646,11015
26632,16646,9223
26376,15622,5127
25352,13574,1799
24840,12294,7
24584,12038,-1017
23559,12806,-3065
22279,14086,-5625
20743,20998,-3065
16903,-29690,6407
11016,-8442,21255
4872,12550,-29432
-1784,29701,-12536
-7928,-19707,12552
-9463,-6139,-22776
-3063,773,-247
5385,-3578,1288
8202,-24570,-22008
8201,32006,-31992
1545,26630,-1273
-2809,-11771,4614
-1017,30469,31494
6918,20486,12294
18694,19974,9990
26630,25094,17414
29446,31750,30214
29958,-27130,-19706
30470,-20730,-7162
29702,-15866,2310
28935,-11258,10758
28423,-7674,20486
28679,-4346,26630
29703,-2042,30214
29703,-250,-31482
29703,2054,-26361
29703,3334,-23545
29447,3846,-22265
29191,5126,-20729
29959,6662,-17401
30727,7686,-14329
30727,8198,-14585
30983,8710,-14585
30727,9990,-12537
30471,10502,-11001
32519,12038,-9721
32519,13062,-9977
-31993,15110,-8441
-31737,16902,-6137
-30969,18694,-5625
-30969,21254,-5369
-30969,24070,-3577
-29689,27654,263
-28920,31238,2311
-28664,-29946,4359
-28408,-25082,7431
-28408,-20730,11015
-28408,-16378,13831
-28664,-12794,15367
-28920,-9210,17671
-29432,-5114,20487
-30200,-2298,22791
-30712,6,23304
-31224,2054,24328
-32504,3590,26632
32264,4102,28168
31240,3590,28168
30216,2310,27656
29192,-1018,26631
28424,-2298,26119
28168,-9978,20743
27912,-14586,17415
28168,-19194,15367
28936,-24314,13063
29192,-29690,8967
28936,31750,5127
27912,27654,3335
27912,24070,2055
28168,20998,-761
28167,17926,-3577
28167,15366,-4601
28423,13318,-5369
28167,11782,-6137
28679,10502,-8441
28679,8454,-9465
28167,7430,-9465
27655,6662,-9721
27399,6150,-11001
27655,5126,-11001
27655,4102,-10745
28167,3078,-10233
27911,2822,-9977
28167,2310,-9977
28167,2054,-7929
28167,2054,-6649
29447,2310,-4089
29447,2310,-3321
29703,2566,-1529
29703,2566,1031
29704,2566,2311
29704,2822,2311
30216,2822,2311
31752,3078,2055
32520,2566,1799
-32760,2054,519
-32504,2310,263
-31480,3334,1031
-31736,3846,1799
-32760,4102,1799
32520,4614,1543
-32504,5894,1287
-31992,7686,1799
-32248,8454,2055
32520,9222,2311
32008,11526,2055
31496,13318,2055
30472,13830,2055
29960,13830,775
29960,13830,-2041
29959,13574,-3577
29703,10502,-7929
30215,9734,-9977
29703,9734,-12025
27655,9478,-14841
26119,11014,-16121
24583,18182,-13305
21767,-31738,-3321
16391,-9722,11783
9224,10502,26632
2568,27142,-21496
-3576,-23035,2568
-3831,-10235,31752
3081,-4858,-12792
10761,-12026,-13048
14089,30470,24584
12041,-6906,-27385
5896,13318,-25849
1799,-24314,-16378
5382,20998,12806
15110,13574,-4602
26117,14342,-4602
-32507,20230,6150
-29690,28166,20486
-29178,-30458,-31482
-29178,-29178,-28410
-30714,-20218,-8442
-31482,-15098,2054
-30969,-10746,9478
-30201,-8186,15110
-29945,-5882,20230
-30201,-3578,25350
-30457,-762,29190
-29689,774,31495
-29689,1286,-31481
-29433,3334,-27897
-29689,5382,-26105
-29945,5894,-25593
-29433,6150,-24569
-29177,7174,-22265
-29177,9478,-20729
-29433,11014,-19449
-29433,11270,-18937
-27641,12294,-17145
-27129,15110,-15097
-27129,17414,-14585
-27129,19206,-13305
-26105,21254,-11257
-24825,25094,-8441
-25081,28934,-6905
-25849,29446,-6905
-24825,-29434,-1273
-23545,-23546,2823
-23288,-18170,5383
-24056,-14074,7943
-24824,-10490,11015
-25848,-6650,14087
-26360,-2810,16135
-26872,-250,17159
-27384,1798,19208
-28664,4102,21512
-29432,5382,22792
-30200,5382,22792
-30456,4358,23048
-31736,2054,23048
-32248,-1018,22023
-32248,-5114,18951
-32760,-10234,15623
-32760,-14842,13319
-32760,-19962,11015
-32504,-25338,6663
32520,-30458,2823
31240,30726,263
31240,27654,-1017
-32761,24326,-3321
-32249,22790,-5369
-32761,17670,-8441
32007,15878,-8697
32007,14342,-9721
-32761,12294,-11513
32519,10502,-12537
32519,10246,-12281
32263,8966,-12537
32007,7430,-13817
32007,6150,-15353
32263,5894,-15353
32519,5638,-14841
-31993,5126,-14585
-32249,3846,-14585
-32761,3846,-14585
-32761,3846,-13561
-31993,3334,-11001
-31481,2822,-9465
-31737,2822,-8441
-31481,3334,-6137
-31481,3590,-3065
-31737,4102,-1273
-31481,4870,263
-30712,5638,1031
-29432,5638,3079
-29688,5894,3591
-28408,6150,3079
-27640,6150,2823
-27384,6406,2567
-27128,6918,2567
-27128,7430,2823
-27384,7686,3079
-27128,8710,3335
-27384,8966,3079
-27128,9990,3335
-27640,11270,3335
-28152,12038,3335
-27896,12806,3079
-28152,14086,3079
-28152,15878,3591
-28664,16646,3079
-29688,16646,1799
-30456,16646,-1273
-30713,15622,-4345
-30457,13574,-6137
-30713,12550,-7929
-31481,12550,-10489
-32505,12294,-11769
32519,12806,-12537
30983,16902,-12281
29447,18950,-12281
23047,-20986,3591
17672,774,19208
10760,20742,-28920
3336,-27386,-10232
-1528,-12283,15624
777,-1530,-19960
9481,2310,-1783
16137,-8442,-9208
17417,32262,24072
14345,-9722,-32761
9224,11782,-29689
6151,-20474,-14842
8966,27654,17414
19462,20998,4358
31494,24070,9478
-27130,30982,21254
-26362,-26362,-30970
-26618,-20474,-17914
-26618,-15866,-5882
-26874,-9978,5382
-26873,-3834,14342
-26873,-762,20486
-26617,774,26375
-27129,3334,32007
-27385,5382,-32249
-27129,8966,-26361
-26617,9222,-23289
-26105,10502,-20217
-25849,13062,-17401
-25849,14598,-16121
-25593,14598,-14841
-25593,15366,-12793
-25337,17414,-11001
-24825,19206,-10745
-24569,19462,-9465
-24313,20230,-7673
-23801,22534,-6137
-22521,24838,-5113
-22521,25862,-4857
-22009,27398,-2553
-21753,30982,7
-20728,-29946,1799
-19704,-26618,3591
-19704,-24570,5639
-19704,-19450,9223
-19960,-13050,12039
-20216,-8954,14343
-20216,-5626,17671
-20216,-762,21255
-19704,1798,22024
-20728,7686,25352
-22264,9222,26888
-23800,11782,29448
-23800,15622,31752
-24056,17670,-32504
-25336,17158,-31992
-27128,16134,-31736
-27896,14854,-31224
-28152,12550,-31480
-28152,7942,30728
-28664,2822,28424
-29944,-1274,26119
-29944,-5370,23303
-28920,-11002,20487
-28152,-16378,17415
-28408,-20218,14855
-29176,-23034,13319
-29176,-26618,11015
-28920,-30202,8455
-28408,-32506,7175
-28408,31750,6919
-29688,29190,5127
-29944,26886,3591
-29688,25862,3591
-29688,26118,3591
-28664,24838,2823
-29176,23046,1543
-29688,21766,1031
-29944,22022,775
-29432,21510,263
-28920,20486,-249
-28409,19462,-505
-28409,19462,7
-29176,19462,1031
-29688,19718,1543
-29176,18950,2823
-27896,18950,4615
-27128,18950,7687
-27384,19718,9223
-27640,20230,10503
-27896,20742,13319
-27896,21254,16391
-27384,22278,18183
-26360,23046,18695
-25336,23046,19463
-25080,23046,19975
-24568,23558,20231
-24056,23814,19719
-23800,24070,19719
-23800,23814,19463
-24056,24070,19719
-24056,24582,19975
-24824,24582,19719
-25080,24838,19975
-25848,25350,18183
-25848,26886,17927
-25592,27910,18183
-26360,28166,18183
-26104,29446,18439
-27384,31238,18183
-28408,32518,17671
-28920,32262,16647
-29176,32262,14599
-29176,32006,12039
-29688,30982,9735
-29432,28678,6919
-29688,27654,5127
-31480,28422,3591
-32504,29958,2311
32520,32518,2567
30216,-24314,5895
25352,-7162,16647
18696,15110,31752
11784,-29946,-17912
9224,-24314,-13816
-504,1797,26889
-247,15621,-7159
6921,19974,10761
15114,10246,6921
17674,-14330,-22776
14857,11782,-11000
9992,-32762,-7161
7431,-1274,5638
9735,-21242,-29690
19718,-26874,23046
32006,-24826,24838
-26362,-19194,-29946
-25082,-12282,-17402
-25338,-5370,-3578
-25594,518,8711
-25593,5638,19207
-25337,10502,28167
-25593,14086,-30713
-25593,16134,-25337
-25849,18694,-20217
-25849,20998,-16121
-25337,23302,-12281
-24569,25094,-9209
-24825,26118,-6905
-24569,26886,-6137
-24569,29446,-2809
-24313,29702,-1017
-24057,30470,263
-24056,32006,1799
-23544,-31994,3335
-22776,-31226,4103
-22008,-30714,4359
-22008,-28922,6151
-22008,-26618,7175
-21240,-24826,8455
-20216,-23290,9223
-19960,-20730,11015
-19192,-17146,12807
-18424,-13562,15111
-17400,-9722,17415
-17144,-5882,20231
-17144,-762,23047
-17144,4102,26376
-17656,7686,28936
-17656,11782,31752
-18168,15622,-31736
-18936,19462,-29432
-19192,22534,-27384
-20216,24582,-25336
-20216,25862,-24312
-22008,29190,-21752
-23288,29190,-21240
-24312,28422,-20216
-25336,26630,-20472
-25592,23558,-21752
-25592,19974,-23800
-25848,15366,-26360
-25848,10502,-28664
-26104,5638,-31224
-26616,774,30472
-26616,-3834,27655
-26360,-7930,25351
-26616,-11514,23047
-26872,-15098,20231
-27896,-18682,17415
-27896,-20986,16647
-26872,-23034,15879
-25848,-25082,14599
-26104,-26618,13063
-27128,-28154,12551
-27384,-28666,12039
-26872,-30202,11783
-26872,-30970,10247
-26872,-31482,9735
-27128,-31738,9991
-27128,-32762,9735
-27384,32006,8711
-27128,31750,8455
-27128,31238,8455
-26872,30470,8199
-26872,29958,8199
-27128,29958,9223
-26104,29958,11783
-25336,29958,13063
-25592,29702,13575
-25848,29958,15879
-26104,30470,18439
-26360,30982,21255
-25592,31750,23047
-25592,-32506,25095
-25592,-32250,27655
-25592,-32250,28167
-24568,-31994,27911
-22264,-31994,27399
-20984,-31738,27399
-21240,-31738,27143
-22264,-31994,26375
-22776,-32762,25351
-22776,-32506,25095
-23032,-32250,24839
-23032,-31738,25095
-23032,-31226,24071
-23544,-30458,23303
-24312,-29690,23303
-24824,-28922,23047
-24824,-27898,22791
-24824,-26874,22279
-25848,-25594,22279
-26360,-24058,22279
-26104,-23802,21255
-26104,-24314,18439
-27384,-26106,15111
-28408,-27386,13063
-28152,-28154,11527
-27896,-28154,9991
-27896,-27386,8455
-29944,-26106,7687
32008,-22010,7687
28936,-9978,13063
24584,8454,24840
18184,29958,-24824
10760,-15610,-7672
4104,262,11785
1289,14854,-25847
1033,19206,-16119
11529,25606,14345
18186,12806,4361
19978,-16378,-32760
16393,6918,-25080
9992,29958,-20217
7175,262,-2041
13318,-15610,-31226
25606,-18938,26374
-29434,-15610,31750
-25338,-8442,-21754
-24058,-1018,-8442
-23290,5126,4359
-23289,10502,15623
-24569,15878,25863
-25081,20742,-31481
-24313,23558,-25337
-23801,26374,-19705
-23289,28422,-14585
-23545,31238,-10233
-23801,-32250,-7417
-23801,-32250,-5369
-23545,-30458,-2297
-23033,-28666,263
-22776,-26874,1543
-22776,-27130,1799
-23032,-26106,3847
-23032,-24826,5639
-22776,-23546,6663
-22776,-23034,7175
-22264,-21754,8711
-21496,-19962,9991
-20984,-17914,10759
-20728,-16634,11783
-20472,-15610,12551
-19960,-12282,14343
-18680,-8442,16135
-17656,-5626,17671
-17656,-2298,19975
-18680,2054,22280
-18680,7430,25352
-18680,12038,28168
-18680,15878,30984
-18424,20230,-31480
-19448,25094,-29176
-20216,28678,-26872
-21240,30726,-25080
-21752,-32250,-22776
-22264,-29178,-20472
-23288,-27898,-19448
-23288,-28154,-19192
-24312,-28410,-17656
-25080,-29946,-17400
-25592,32518,-18168
-26616,27398,-20728
-26872,22790,-23800
-27128,18950,-26360
-27384,13830,-28408
-27128,8198,-31480
-26872,3078,29448
-27384,-1018,26887
-28408,-5114,25095
-28664,-9210,23047
-27384,-12282,20999
-26360,-14330,18951
-26616,-16122,17927
-26872,-18426,16647
-27640,-20986,15111
-27640,-21498,14343
-27640,-22266,13831
-27896,-23802,13575
-27896,-25850,12551
-28152,-26618,10759
-28152,-26618,10759
-28152,-27642,10759
-27896,-28666,9991
-27640,-28922,9991
-27896,-28922,10247
-27128,-29690,10759
-26872,-30202,10759
-26872,-30714,11783
-26616,-30970,13831
-26360,-30458,15623
-26360,-29946,17159
-26360,-29690,19719
-26104,-29434,22535
-26360,-28666,24583
-26872,-28154,25863
-26616,-27386,27911
-26104,-26874,29447
-24824,-26874,29703
-22776,-26618,29447
-22776,-26618,28679
-23032,-27130,27911
-23288,-27642,27655
-23544,-27642,27399
-23032,-27130,27399
-22776,-26362,26887
-23544,-26106,26119
-24056,-25850,26119
-24056,-25850,25607
-25592,-24570,24839
-25848,-23034,25095
-25592,-22266,25095
-26104,-21498,24839
-27384,-20730,23815
-27896,-19962,21767
-28152,-19962,19207
-28408,-22266,16903
-28664,-23546,14599
-29688,-24570,12295
-29944,-25082,9735
-30200,-25338,8711
-30456,-25082,7687
-32248,-22778,6663
30216,-14842,8455
26888,262,17928
21512,21254,-31992
14856,-23546,-16120
6920,-5114,264
-247,10501,24585
-247,23045,-9463
7177,29702,12297
14602,25094,13833
17930,2822,-10231
19721,-6906,-20472
12041,-14330,10503
6920,13574,17927
7687,-8698,-18938
17158,-17914,31238
30214,-17914,30214
-27642,-11770,-28154
-25338,-3834,-16378
-25082,2566,-2041
-25082,7430,11015
-25593,13062,20487
-26873,19206,28167
-26873,22790,-28665
-26361,24326,-21241
-26617,26630,-17401
-26361,30470,-14329
-26105,32518,-9977
-25849,32262,-5881
-25337,-31994,-4089
-25337,-29178,-3321
-25593,-27642,-505
-25593,-27642,2055
-25336,-27386,3591
-24568,-25338,3335
-24568,-23290,4871
-24312,-23290,6663
-23544,-22778,9223
-23288,-20986,8967
-23288,-17914,9223
-23288,-16378,12551
-21752,-15354,14087
-20984,-13050,14087
-19960,-8186,15623
-19960,-4858,17927
-19960,-2810,20743
-19960,1286,22536
-20216,7174,24584
-19448,12294,29192
-19192,16134,-31480
-19704,19718,-28920
-20472,25094,-27640
-20984,29702,-25336
-21496,31238,-21752
-21752,-32506,-19960
-23032,-29434,-19704
-24568,-26874,-18168
-26104,-27130,-16376
-27384,-29178,-16120
-27896,-30458,-16632
-28152,-32506,-18168
-28152,31750,-18168
-28664,22790,-22008
-28920,17926,-25848
-29688,14086,-29688
-30200,8966,-32504
-30456,2566,30472
-29944,-2554,26631
-29688,-5370,23559
-29688,-8442,21767
-29944,-13050,19975
-30200,-16634,17415
-30456,-18170,14599
-30712,-19450,13319
-30456,-21754,13575
-30712,-24570,12807
-30200,-25082,11015
-30456,-25338,10503
-31480,-26874,9991
-31480,-29434,9223
-31480,-29690,7943
-31224,-29434,7431
-29688,-29690,7687
-29944,-30970,7431
-29944,-31994,6407
-29944,-31994,5383
-29944,-32250,4871
-29688,32518,5383
-29688,31750,5127
-29688,31494,4871
-30200,31238,4615
-30456,30982,5639
-30200,30982,8199
-29944,31494,10759
-29176,32262,11783
-28664,-32506,13575
-28664,-31738,17671
-28152,-30714,21255
-27896,-29434,23303
-28152,-28410,25351
-28664,-28410,27911
-28664,-27898,28679
-27128,-27642,28679
-26616,-27642,27143
-26360,-27642,26119
-26616,-28666,25607
-26872,-29178,24583
-26872,-29178,23559
-27128,-29178,23047
-26360,-29690,22535
-26104,-29946,21511
-26104,-29946,19975
-27896,-30202,17671
-28408,-29690,17671
-28664,-28922,16903
-28664,-27898,16647
-28408,-27642,16391
-28664,-26362,16135
-29432,-25082,15623
-30712,-24570,14855
-30456,-24570,13063
-30712,-25338,9991
-31224,-25850,7687
-31736,-27386,4615
-32504,-27898,2567
-32760,-27386,1799
32008,-25850,1543
30216,-21754,1543
26632,-10746,7687
21512,7174,20488
15112,31238,-28664
6408,-12538,-13816
-1272,4613,3337
-6391,16645,25097
-5367,24069,-17143
3337,21510,-7671
6921,18182,-7671
15369,32518,7944
14601,-11770,16903
9992,10502,21767
6663,-21242,-26618
8966,28166,8966
19974,25862,262
32262,-32762,4614
-27386,-23290,18438
-26106,-13818,-30970
-26362,-4602,-15354
-26362,3846,-2041
-26362,11526,10247
-26873,17158,20743
-26617,21510,28935
-26105,25606,-30969
-26361,28934,-25849
-26105,31494,-19961
-25849,-31738,-15609
-25849,-30202,-13049
-26361,-27898,-10745
-26361,-27386,-8185
-26617,-26362,-5625
-26105,-25338,-4601
-25849,-23546,-3321
-25337,-22778,-2041
-24825,-21754,263
-24056,-20986,1031
-23800,-19194,1543
-23544,-17402,2823
-23288,-15866,4615
-23288,-14330,5639
-23032,-11770,5895
-22264,-8698,7943
-20472,-5626,10247
-20216,-2298,12039
-20216,1542,13576
-20216,6662,16904
-19192,12038,20488
-17912,16902,23816
-17912,21510,26120
-19448,26118,28424
-20984,29958,31496
-20728,-32250,-31736
-21240,-29434,-30456
-22776,-26106,-28664
-23800,-23802,-26360
-23800,-22778,-24312
-23800,-22266,-24312
-25336,-22522,-24312
-25592,-23034,-24568
-26872,-28410,-26104
-27384,32006,-29176
-27640,27910,32264
-29432,22022,27912
-29688,15622,24328
-29432,9734,19976
-29688,4614,16392
-30200,774,12552
-30200,-4602,9735
-30200,-9466,7431
-29944,-12282,4359
-29944,-14842,1543
-29688,-17914,7
-30200,-21242,-1273
-29945,-22778,-3065
-29945,-23802,-5113
-29945,-25338,-5881
-29945,-27386,-6649
-30457,-28922,-8185
-30969,-29178,-9209
-30969,-29434,-9209
-30713,-30458,-9209
-29689,-31482,-9721
-30201,-31994,-11257
-30457,-32250,-11769
-31225,-32762,-12025
-30969,32262,-12281
-30457,32006,-12793
-30457,31750,-12793
-30457,32262,-12025
-30713,-32762,-10233
-30457,-32762,-9209
-29433,-32506,-7161
-28665,-31738,-4857
-28665,-30714,-1529
-28665,-29946,263
-29688,-29946,2311
-29432,-29178,5127
-29432,-27642,9223
-29432,-26362,11783
-29432,-25594,12295
-28920,-25850,12807
-27128,-25850,13575
-25848,-26106,13319
-25848,-26106,11783
-25848,-26106,9735
-25848,-26618,8967
-26104,-27130,8967
-26104,-27386,7687
-25592,-27386,5895
-26616,-27898,5127
-26872,-28666,4871
-27128,-28922,3591
-27128,-28666,1543
-26360,-28410,1031
-26104,-27642,1287
-27384,-27130,1031
-29432,-26362,7
-30200,-25850,-761
-30201,-24826,-1785
-29433,-24570,-2297
-29177,-24570,-4857
-29945,-25850,-8441
-30201,-27130,-10233
-31225,-27386,-11769
-31993,-26874,-12537
-32761,-25594,-14329
30983,-22010,-14841
27143,-12282,-9209
20999,5382,2312
13576,29446,18440
5128,-12794,-30968
-3064,5893,-14071
-8184,18949,5385
-8183,22021,11529
-247,20997,-30967
9737,-250,21000
15625,26886,-17144
16136,-19706,-7673
12039,774,-2297
8198,-31738,14598
8454,16390,-15610
18437,14342,-24826
31493,21766,-19706
-26875,-32250,-4090
-25851,-20474,13574
-26106,-10234,30726
-25594,-1018,-20474
-25082,7430,-7417
-25594,14086,4103
-26361,18694,12295
-26361,22790,18695
-26617,26630,24071
-26873,30214,31239
-26873,32518,-29433
-26617,-31226,-27129
-26105,-28922,-24057
-26105,-27130,-21241
-26105,-26106,-18169
-25593,-26106,-18425
-25849,-24314,-16121
-25081,-22522,-13561
-24825,-21754,-11769
-25593,-21498,-11257
-25593,-19706,-10489
-25337,-17658,-7929
-24057,-15610,-5881
-22777,-14586,-4857
-22777,-12538,-4601
-22521,-9210,-2297
-22009,-6138,775
-20728,-2554,2823
-20472,1286,4104
-20984,6662,7688
-20984,12038,12296
-20984,16646,15624
-20472,21254,17928
-20984,26118,20744
-22008,30470,24328
-22520,-31226,27400
-22264,-28666,28424
-22008,-25850,30472
-23544,-23290,32520
-26872,-23034,-31736
-26872,-23290,-31992
-27640,-24058,-32504
-27384,-26106,-32248
-29176,-29946,32264
-30712,29702,28680
-30712,25094,24840
-30200,19974,21000
-30712,13318,17928
-30968,7174,14088
-30712,2310,9736
-30456,-2042,6151
-30456,-7162,3591
-31224,-12282,775
-31480,-15610,-1785
-31737,-17914,-4089
-31481,-20474,-5625
-31225,-23290,-6905
-31481,-25594,-8697
-31993,-25850,-9721
-31737,-27130,-10489
-31993,-29434,-11001
-31993,-31226,-12537
-31737,-30970,-12793
-31737,-30970,-12793
-32505,-31994,-12793
-32761,32262,-13049
32519,31238,-13817
-31737,30982,-14073
-31737,31238,-14073
-31737,30470,-14329
-31993,29702,-13817
-31481,29958,-13561
-31225,30214,-14841
-31993,29446,-14585
-32761,28678,-14585
-32761,28934,-14073
-31737,29190,-13305
-31481,28934,-11769
-31225,29446,-9209
-31481,29702,-7417
-31737,29958,-5369
-30969,30726,-2297
-31225,31238,519
-31480,32262,2823
-32248,-32762,4359
-32760,-32506,6407
-32760,-32250,8455
-31992,-31994,9223
-31736,-31738,8967
-31224,-32250,7943
-29944,-32506,7175
-30200,31750,5639
-29688,31494,4871
-29432,31238,4359
-29432,31238,2567
-29944,30726,1287
-30456,30214,1031
-31224,29958,519
-31224,30470,7
-31224,30982,-1273
-31737,31494,-2041
-31993,32262,-2041
-32249,-32250,-1529
-32761,-30714,-761
31495,-29434,-761
30727,-29434,-1785
30727,-28666,-3321
30727,-28666,-4601
30727,-29434,-6649
30727,-30714,-8441
30727,-31738,-10745
30215,-31994,-11513
29447,-30970,-12281
27911,-29178,-13561
25607,-23546,-12537
25607,-20986,-11769
14855,8454,7688
6408,28934,19976
-2040,-19707,30216
-8440,-4091,-18680
-9976,9477,6921
-5367,18437,-32503
2569,16646,-22519
9993,-4090,27656
14345,27910,-7160
13064,-15866,3847
8200,7942,13319
5639,-20218,-28666
9734,32518,15366
20486,32262,11526
30470,-26362,18694
-30714,-18426,30982
-30970,-9978,-20474
-31738,-2042,-7162
-31994,4614,3591
-31993,10502,12551
-31737,15366,21511
-31737,19206,28935
-32505,21766,-32505
32007,24582,-28921
32007,25606,-27129
32007,28422,-19961
-31993,30214,-16633
-31993,31494,-15865
-31993,-32762,-13561
-31993,-31226,-10489
-31737,-30458,-9209
-31737,-29434,-8697
-31481,-28666,-7417
-30713,-27642,-4857
-30969,-26618,-3833
-31225,-25850,-3833
-31225,-24570,-2553
-30457,-23034,7
-29432,-20986,1799
-28920,-18938,2311
-29176,-16634,3335
-28408,-13562,5639
-27640,-10234,8455
-26616,-6906,9991
-26872,-2810,11783
-26616,1798,15624
-25336,6406,20232
-24824,10758,22024
-24568,14854,23560
-24568,16646,25096
-26104,22534,30472
-26616,25606,32520
-27640,28166,-31992
-29432,30214,-29176
-29944,32006,-26360
-30200,32262,-25848
-31736,31238,-26360
31752,29190,-26872
30984,25350,-27128
32008,21766,-28408
32008,17414,-31480
30728,12038,30728
29960,6662,28680
29960,1542,25864
30472,-3322,22535
30728,-7674,19719
30216,-11770,17671
29960,-15866,15879
29448,-18938,13319
29448,-21242,11015
29960,-23802,10503
29960,-26106,9735
30216,-27386,8455
29704,-28666,7175
29704,-29178,7431
29704,-31226,7431
29960,-31738,6919
29960,-32506,6151
29704,32262,6151
29960,31494,6407
30216,31238,6151
30472,30982,6151
30728,30726,6407
30472,29958,6663
29704,29702,7175
29704,29446,7431
30216,29446,8967
30984,29702,11015
30984,29702,11527
30728,29958,13063
29960,29958,15111
30216,30214,17671
30216,31238,19975
30216,32006,22279
30472,32006,24327
30984,32262,26375
31240,-32506,27655
31240,-31482,28679
31752,-31738,28679
32520,-31994,28679
-32760,-32762,27399
-32760,32262,25863
-32504,31750,24327
-32504,31750,23815
-32760,31238,23815
-32504,31238,23559
-32760,31494,22535
32520,31494,21511
32008,31494,21255
31240,-32762,20999
30728,-31994,20999
30472,-31226,20743
30472,-30202,20743
29704,-29178,20743
29192,-28666,19719
29192,-28410,16903
29192,-29946,14599
28936,-31994,12039
28936,32518,10503
28424,32518,9223
28424,32518,7687
28168,-32762,6663
26120,-30970,5895
23048,-24570,7431
22792,-22010,8199
15112,7686,29192
8712,28934,-20728
1288,-19450,-6648
-4856,-4859,13320
-6135,8197,-23287
-1015,17669,4105
5130,17926,14345
8970,3590,-247
9737,-24314,29448
5385,-1018,-28153
-760,24069,-21241
-2041,-3323,-250
4614,-16890,-24570
17158,-19962,-30202
27398,-16890,-24826
31494,-10746,-13818
32006,-4090,-1018
32518,1542,12295
-32761,6150,22023
32007,10758,29959
32007,15622,-27641
32007,18182,-20473
-32761,19718,-15865
-32505,22278,-12281
-32761,23558,-10745
32007,26374,-4601
-32505,26630,-1785
-31993,27910,-249
-31481,29958,1799
-32248,30726,4103
-32504,30726,5127
-32248,31238,5895
-32248,-32506,6663
-31736,-31482,8711
-30968,-30970,10247
-31224,-30202,10247
-30200,-28410,10503
-30200,-26362,12295
-30200,-25338,14087
-29432,-23802,14599
-28664,-20986,15111
-28408,-17658,16903
-28408,-14842,18951
-27640,-12026,20231
-26616,-7418,22279
-26616,-2042,25607
-26872,2822,29448
-27384,6918,32008
-27896,11270,-31224
-27384,13574,-29688
-27384,19462,-25080
-28152,21766,-22776
-29688,23814,-22008
-31736,26374,-19704
-31736,27910,-16888
-31992,27654,-15864
32008,26118,-15864
30472,23558,-16376
30472,20742,-16632
30216,16390,-18936
30216,11014,-21752
30216,6150,-24056
29448,1542,-26616
29192,-3834,-30201
29192,-8954,32007
29192,-12794,29191
28936,-16122,27655
28936,-19194,26119
28680,-22778,23815
28936,-25082,22023
28936,-27130,20999
29192,-28922,20231
30216,-30714,18951
29704,-32250,17927
29704,-31994,17927
28168,32006,16647
27912,30470,16135
28168,29702,15367
28168,29702,15623
28680,29446,15367
29448,28934,15623
29192,27910,15879
28936,27654,15111
28680,27910,14855
28936,27398,14855
28936,26886,14599
29704,26886,14599
29960,26886,15879
30472,25862,16647
30472,25862,18183
30216,25606,19207
30472,25606,21511
30728,25862,23815
30728,26374,26119
30984,27142,28423
30728,27398,30215
31240,27654,32007
31496,27910,-32249
31752,28422,-32505
32520,28166,-32505
-31480,28166,-32505
-30456,28166,-32505
-30712,28166,32007
-31224,27398,30727
-31480,27398,29959
-31736,27398,29959
-31480,27398,29447
-31736,27654,28423
-32248,28166,26887
31752,28422,26375
31496,28934,26375
32520,29958,26119
-32504,31750,26119
31752,-32250,26119
30984,-31994,25607
31240,-31738,24071
30984,-31482,20743
29960,-32506,17927
28680,31750,16391
28936,30470,14599
28936,30470,13319
28680,32006,11783
26376,-31226,11271
23304,-25082,12807
23560,-22522,14087
15880,10502,-29688
8712,-31738,-13304
1032,-13306,2824
-5879,517,21513
-8439,11781,-19191
-3831,18181,3337
4106,13574,8713
10250,-8186,-11256
11529,23302,13064
5897,-19962,18695
8,5894,26119
-1273,-21243,-16634
5894,-31994,26630
18438,-31738,23046
28166,-25850,31238
-32250,-18426,-20986
-30970,-9978,-5882
-31226,-2298,8966
-31737,4614,20231
32519,10246,29959
32519,14598,-26361
-31737,18694,-18425
-31225,21766,-13305
-30969,24070,-8953
-30713,25094,-7161
-30969,28678,-249
-30713,30470,2311
-30456,31238,3847
-30712,32518,6151
-30712,-31738,8455
-30200,-30714,9735
-29688,-30202,10247
-28920,-29690,11527
-28920,-28410,13319
-28920,-26874,14599
-28152,-26106,15111
-25592,-25338,15623
-25592,-24058,16903
-25848,-21498,18183
-25592,-19450,18951
-25080,-17658,20231
-23800,-14074,22279
-22264,-9978,24839
-22008,-5882,26631
-22264,-1786,28935
-22008,2822,32520
-22008,8710,-29176
-23288,13830,-26872
-23544,18182,-24568
-23800,19718,-23288
-25592,26118,-19704
-25592,29958,-17144
-26360,-32762,-15608
-28920,-30202,-13560
-30456,-28922,-12024
-30968,-28410,-11512
-32248,-28666,-11512
-31736,-31226,-11256
-31736,30726,-12792
32520,25862,-16120
32264,20998,-20216
30216,15622,-23032
29192,9990,-25592
32008,5126,-29432
32264,6,31752
31496,-4346,28679
31752,-8698,26887
30216,-12026,24327
29960,-14586,21255
30472,-17402,19463
29704,-20474,18183
29960,-22010,16903
30216,-23290,14343
30216,-24826,13575
30216,-25594,13831
30216,-26874,13319
29704,-27642,12551
29448,-28666,11015
29448,-28922,10247
29192,-29946,10503
29704,-29946,10247
30216,-30458,8455
30216,-30970,7687
28936,-31738,7943
28680,-31994,7431
28936,-31738,6407
29960,-31994,6151
30472,-32506,5895
30216,-32762,6151
31240,-32762,6919
32264,-32506,7431
32008,-32762,8455
32264,32518,10759
32520,-31994,13319
-32760,-30714,15111
-32760,-30202,17927
-32248,-29434,20999
-31992,-28922,23303
-32248,-27386,25351
-32248,-26874,26375
-32504,-25850,29703
-30968,-25850,30727
-29176,-25338,30727
-29432,-25338,29447
-29944,-26362,28167
-30456,-27386,26887
-30456,-27642,25607
-30456,-27130,25095
-30968,-27130,24583
-30712,-27386,23303
-30968,-28154,21255
-30968,-28410,20231
-30968,-27642,20231
-31224,-27386,19463
-31480,-27130,18439
-31992,-26106,17927
-32760,-25338,17927
-32760,-24826,17159
-32504,-23802,15367
-32504,-24058,13575
32008,-24826,11271
30728,-26106,8455
30728,-27386,6663
30472,-27130,4615
30216,-26874,4615
28424,-26106,2823
27400,-23802,1799
25096,-15354,5383
19976,1542,15624
13832,23046,31496
6920,-20986,-19192
-248,-3067,-5112
-6392,10757,15881
-8183,20485,-24055
-503,22277,-5879
8969,13574,-6391
12809,-11514,32520
12041,15110,-15096
7176,-29434,-8953
1799,-1018,2054
1799,-22522,28934
10246,-29178,13318
23046,-28154,13318
31750,-20218,23558
-30970,-10234,-28154
-30714,-2042,-12538
-29690,4102,1287
-29433,10502,12807
-30457,17414,22535
-31225,19462,25863
-31993,24582,-27385
-31737,27398,-22009
-31737,30982,-17657
-31481,-31738,-13561
-31225,-31226,-9465
-30713,-30458,-6649
-30457,-27642,-5369
-30457,-25850,-3065
-30201,-25850,-761
-29689,-25850,775
-29432,-25338,1031
-29432,-23290,2311
-29432,-22266,4359
-28664,-22266,5127
-28664,-22010,5383
-28152,-19706,6919
-27640,-17146,8711
-27384,-16634,9735
-26104,-14842,11271
-26360,-11514,12295
-26104,-7930,14343
-25592,-5114,16391
-25080,-2298,18439
-23544,3334,21256
-22520,5894,23048
-23288,13574,28168
-24312,16646,30728
-25592,21766,-32248
-25848,26886,-28920
-25848,30214,-25848
-26360,32006,-24568
-27640,-30970,-23800
-29432,-28666,-21752
-30456,-28154,-19960
-31224,-28666,-18936
-31992,-29946,-19192
-32504,-31994,-19960
32520,29702,-21496
32008,24070,-24056
31496,19206,-26616
31496,14598,-28664
-32248,8966,-31736
-31224,2822,29704
-31480,-2298,26119
31752,-6906,22791
29448,-10746,20487
29192,-14586,17671
29448,-18170,15623
29448,-20730,13831
29448,-21242,13575
29448,-25082,11783
29960,-27130,11015
29960,-28666,9223
29448,-29946,8711
28680,-31482,8199
28424,-32762,6919
28680,31750,6919
28936,31750,6919
28936,31494,6919
28680,29958,6919
28424,29190,6151
29192,29446,6151
31240,29446,6151
31240,28678,6151
30216,27398,5639
28936,27142,5127
28680,26886,4359
28680,26118,4359
29192,25350,4615
29960,25350,4871
29960,25350,5383
30472,25350,7687
30984,25862,9479
30984,25606,11271
31240,26374,12295
31240,27654,16903
31240,27654,20231
31496,28422,22791
31496,29446,25607
30472,30470,27911
30216,30726,29959
30728,30982,31239
30984,30982,31239
32264,30470,31239
-31480,30214,30727
-31736,29446,29703
-32248,27910,27399
-32760,27398,26631
32520,27398,26631
32008,26630,25607
32008,26886,24583
32264,26374,23303
32008,26374,22791
32008,26374,22535
31240,25862,21511
31240,25606,21511
30984,26374,21767
30472,28166,21511
29448,28678,20999
29192,28934,20999
29192,29446,19719
29192,29702,17927
28680,29190,15879
27912,27654,13575
27400,26630,12295
26888,26630,12039
25864,28166,10759
25352,29702,9991
23816,-32506,10247
20488,-20730,17927
14856,-1018,31239
7176,22022,-19192
8,-24570,-5112
-7928,-9723,11016
-11511,1541,-31479
-10231,9989,-7415
-1527,8453,4105
6922,-6906,-3576
9481,27654,27400
6921,-13818,-25849
1288,9478,-19193
-2553,-22779,-1530
-250,26629,-31226
10758,24326,25862
15878,25094,25094
31238,-28410,-23034
32006,-19706,-7930
32006,-11770,6918
32263,-4346,19974
31495,1798,30471
30983,6662,-25593
30983,10502,-17913
31495,13574,-11769
31751,15878,-6905
31495,18182,-2297
32007,20486,2311
32520,21766,5383
-32504,22278,6919
-31992,23814,9479
-32248,24582,12295
-32248,25350,14087
-32248,26118,14599
-32248,26886,15879
-31992,28166,18183
-31736,28422,18951
-30712,29190,19719
-30200,30470,20743
-29944,31494,22023
-29176,-31994,24071
-28664,-31226,24327
-28408,-27898,26375
-28408,-25338,27911
-27640,-22522,29703
-26872,-18938,32007
-26616,-15098,-31481
-26872,-10490,-27897
-26616,-4602,-23801
-26616,6,-20728
-26616,3846,-18680
-27128,8454,-15352
-28408,12038,-12024
-28152,15622,-9976
-28664,18182,-8440
-29432,20486,-6392
-31480,22022,-4088
32264,22534,-2808
32008,22534,-2552
31496,21254,-2296
30216,18182,-2040
29192,13830,-3320
29192,9222,-5880
29192,4358,-9208
28168,-1530,-12281
28424,-7162,-14329
28680,-8698,-15609
28424,-17146,-21753
28936,-22010,-24057
28936,-26362,-25337
29192,-29690,-27641
28168,-32762,-30969
27656,29958,-32249
28424,27910,-32249
28424,26118,32519
28680,24838,30471
28936,23302,29191
28936,21254,29191
28680,19974,28679
27656,19206,27143
27144,18438,25863
26888,17926,26887
27144,17158,26887
28168,17158,26631
28168,16390,25863
27656,15366,25607
27656,15110,25863
27656,14598,25863
27656,14598,25095
27656,13574,24839
27400,13318,24583
27656,13318,24583
28168,12806,24839
28424,13062,26119
28424,13062,28423
28680,13062,30215
29704,13830,32263
29704,14598,-30713
29704,15366,-27129
29960,16390,-24057
29960,17414,-21753
29960,19206,-18681
29704,19718,-15609
29960,20230,-13305
29704,20486,-12793
29960,20486,-12793
30984,20230,-12537
-32760,19718,-12537
-31992,19206,-13305
-32504,18950,-15353
31496,17926,-17145
30984,17414,-17145
30728,17158,-18425
31240,16646,-20217
31496,16902,-20985
31496,16902,-21241
30984,16646,-20985
29192,16646,-22009
29448,16902,-23545
30472,17926,-23289
30472,19974,-22777
28680,20230,-23033
27656,20230,-24057
27400,20998,-25849
27400,20998,-27641
26888,19974,-29689
26376,18694,-31737
26376,18182,32007
26120,17926,31239
26376,18438,30471
25096,18950,29447
22536,23046,29447
19976,-32506,-31481
15368,-14586,-18681
9224,8198,-3064
520,29958,12296
-7159,-18427,27656
-11767,-6139,-16888
-11511,517,6409
-4342,773,20233
4106,-12538,13832
6922,-19194,9480
7434,-16634,1031
2057,4358,5383
-2808,-29179,19718
-1273,18181,-13050
7942,12294,-25594
21766,16134,-22522
29958,25350,-11258
31494,-29946,4614
31495,-21754,20230
31495,-15354,-32762
31751,-8186,-21498
31239,-1530,-10490
31495,2566,-2041
31751,5126,3591
31496,8198,8199
31240,12294,13575
30984,14086,18439
31752,14086,21255
-32760,16134,23559
-32760,18438,26375
31752,20230,29191
31752,20230,30983
-32504,20486,31495
-32248,22022,-32249
-32504,23302,-30457
-32248,23814,-29177
-31736,24070,-28665
-30712,25862,-27897
-30200,28422,-25593
-30200,29446,-24313
-29944,30214,-23801
-28920,-32506,-23033
-27640,-28666,-20217
-26872,-25082,-17913
-26872,-22522,-17145
-27128,-18682,-15609
-26616,-13050,-11769
-26616,-7674,-8185
-26360,-3322,-5625
-26360,1030,-2552
-27128,6406,1032
-27127,10758,4360
-27639,12806,5640
-28407,15366,6664
-29431,18950,9480
-30199,21510,12552
-31223,21254,13064
32521,20742,12552
30985,19462,12808
31241,18950,12808
30473,12806,10504
29961,7430,7688
29705,2310,4360
29449,-2554,1543
29449,-8442,-1529
29448,-14586,-4857
28936,-19194,-7929
28424,-23034,-11513
28168,-27130,-13305
28424,-31738,-15353
28680,31238,-17657
28680,29702,-19193
28680,26630,-21241
28936,23814,-22265
28936,22534,-23289
29704,21510,-24313
29704,20486,-24569
29192,18182,-25593
27656,16902,-26873
27400,17158,-27129
27656,16646,-28409
28168,15366,-28153
28936,15366,-28153
28936,15366,-28921
29192,15622,-28921
27656,16134,-29433
27400,16646,-29945
28424,18950,-29945
28680,19206,-30457
28936,17926,-30713
28680,16390,-31225
28168,15878,-31993
28424,15878,-31737
28936,15366,-31225
29448,14598,-30457
29448,14342,-29433
29192,15622,-27641
29704,16390,-25593
29960,16134,-23289
30472,16390,-20473
30216,17414,-17401
30216,19462,-15097
29704,19974,-12537
29960,19718,-9721
29448,21510,-7417
28680,23046,-6905
28936,23302,-6649
30216,22534,-6393
31496,21510,-7417
32008,21510,-8185
32264,21510,-11513
32264,20742,-12537
32008,19462,-13305
30984,17926,-15865
30984,17670,-16889
30984,18182,-16889
30984,18438,-17401
30728,18182,-18937
29448,17670,-19961
28936,18182,-19961
28936,19206,-20217
29704,20230,-20217
29704,21254,-20729
28936,22022,-21753
26376,22790,-22521
26632,23558,-24057
27144,23302,-26105
26888,22534,-28665
26376,22022,-30713
25096,22022,-31737
25096,22534,-32249
25864,24070,32263
24072,25606,31495
21000,32262,-31993
19464,-29946,-30201
11528,2566,-8696
3848,24582,6664
-4087,-22523,20232
-10999,-8955,-28152
-13047,1285,-4855
-8695,6149,15625
-758,261,21257
6410,-21242,4104
7946,10246,30728
4105,32006,-26873
-2296,-8443,-18426
-4601,30469,3846
1031,19462,-19450
14086,19462,-24314
25094,26374,-16890
29702,-30202,-3066
30214,-20474,13318
31239,-12282,27654
31495,-5370,-25850
31239,1030,-15609
30471,6406,-6137
30471,10246,1031
30472,12806,6407
30472,15878,10759
30472,16902,13319
31240,20998,19975
31496,22022,22279
32008,22790,23815
-32760,24838,26631
32520,25606,28935
32520,26374,29959
32520,26886,30727
32520,28422,32263
32520,29702,-31225
-32248,30726,-30457
-31224,31238,-30457
-30968,-32762,-29945
-31224,-30970,-28153
-31224,-28410,-27129
-30456,-26874,-26873
-28408,-23802,-25081
-27640,-20474,-23033
-27640,-17658,-21753
-27640,-14842,-20729
-27640,-9978,-18681
-27640,-5114,-14585
-27128,6,-10744
-26616,4614,-8440
-26872,9222,-6136
-26616,10758,-4088
-27384,17670,-248
-28152,20998,2056
-29431,23558,3080
-30199,26374,5384
-30967,28166,7176
32265,27910,7176
31241,27910,7432
30985,26374,7688
30473,23814,7944
30217,18950,5640
28425,14086,1544
28681,9222,-1528
28680,3590,-3576
28424,-2298,-6649
28680,-7674,-11257
28680,-12026,-14841
28680,-15866,-16377
28680,-20730,-18425
28424,-24058,-21753
27656,-26618,-24825
27144,-29178,-25593
27656,-31738,-26105
28168,31750,-28409
28680,30726,-29689
28936,30470,-29689
28168,27654,-30457
27912,26118,-31481
27912,25606,31239
28168,25094,30983
28936,24838,32263
28936,23814,32007
28424,22790,30471
28680,23046,28935
27656,22278,28935
27400,21510,28679
27912,21254,28679
28936,21254,27911
28680,20998,27399
28424,19718,27655
28168,19462,27655
28936,19718,28167
30216,19718,29703
30216,20486,32519
30216,21510,-30201
30984,22278,-28409
31240,23558,-25337
31752,24582,-21497
30728,26118,-18937
30216,27398,-16889
30216,27910,-15865
30728,28934,-12537
31496,29446,-11257
-32760,29702,-11513
-31736,29702,-13305
-31736,29702,-13561
-31992,29446,-14073
-31736,28934,-15353
-31736,28934,-16889
-31736,28678,-18681
-31992,27398,-18937
-31736,27398,-20217
-31992,27654,-22265
-32248,28678,-22777
-32504,28678,-23033
-32504,28934,-23801
-32760,30214,-24569
31752,31238,-25081
31496,32006,-25337
31496,32262,-26617
30984,32518,-29689
30728,32006,-32761
29192,30214,29959
28936,28422,28423
28936,28422,26631
28680,28422,25863
28680,29190,24071
26888,30982,23815
24840,-28666,24583
22024,-16122,31495
16136,4102,-19960
8456,27398,-3320
264,-16634,12040
-5879,-1019,29448
-9719,9989,-12535
-7415,14597,9481
1290,10246,15113
9226,-11002,-2296
12297,19206,23816
9993,-25082,-32761
3336,-506,-26874
775,-29434,-8442
5894,24070,-32506
17414,22534,27142
28166,29446,-31226
-31994,-26362,-17914
-29946,-17146,-1274
-29946,-8698,14598
-30201,-1274,27142
-30201,5382,-28153
-30969,7686,-24313
-30969,15110,-9721
-30457,18694,-3833
-30457,22022,519
-30712,24838,4615
-30456,26118,9223
-29944,27654,12039
-30200,29446,13319
-29432,31238,15879
-28920,32262,18439
-28408,-32762,20231
-27896,-31482,20743
-27640,-30202,21255
-27896,-29178,23559
-27896,-28154,25351
-27384,-27386,25095
-26104,-25338,25863
-25592,-23802,27655
-25592,-22522,29447
-24568,-19962,29447
-23544,-17146,30215
-23288,-13818,-32505
-23544,-10746,-29689
-22520,-6394,-27641
-21240,-1274,-25337
-21496,518,-23800
-21752,8198,-18680
-22008,13318,-15608
-22264,18438,-13560
-22264,23558,-9976
-22264,27142,-6392
-23544,29958,-5112
-24312,-32506,-4344
-25080,-29946,-2552
-26360,-28410,-248
-27128,-28154,776
-28407,-28666,264
-29175,-30202,-1016
-30456,31238,-2552
-30968,25350,-5112
-31480,20486,-8696
-31480,15878,-12536
-31224,9734,-15608
-30968,3846,-19192
-30968,-1530,-23545
-31736,-5626,-27641
-31992,-10490,-29945
-31224,-15098,-32761
-31224,-18682,29447
-31224,-20730,26887
-31480,-21754,26631
-31224,-26362,23815
-31480,-28410,22535
-31992,-29690,20487
-31736,-30714,19975
-31736,-32250,19719
-31992,31750,18695
-31992,32006,18183
-31736,31238,16647
-32248,29446,16135
-31992,28678,15879
32520,28678,14599
-32760,28422,14599
-31736,28166,14343
-31480,27398,13831
-31480,27398,12551
-31480,26374,11783
-30968,26374,11783
-30456,26118,11783
-30456,26118,11271
-30200,26374,11015
-30456,26374,11015
-30456,26118,11527
-30456,26630,12039
-29944,27910,13319
-30200,28422,14599
-29176,28934,17671
-28664,29958,19719
-28408,31238,22279
-28152,-32762,25351
-28152,-32250,27911
-28920,-31738,29959
-29432,-30202,32519
-29688,-28922,-30457
-29688,-28922,-29177
-29432,-29178,-29177
-30712,-29178,-29177
-29688,-29690,-29689
-28152,-30202,-30457
-26872,-31226,-32761
-26360,-31482,31239
-27128,-31994,29959
-27896,-32506,28423
-27896,32262,26631
-28152,31238,24327
-28408,31494,24327
-28408,31494,24071
-28408,31238,22791
-28152,31750,21255
-29176,32006,20487
-30456,32006,20487
-30456,-31994,20487
-30712,-30714,20231
-30200,-29178,19975
-31480,-28666,18439
-31992,-28922,15879
-32504,-29178,14087
32520,-29178,12295
32520,-29946,10503
32520,-30714,8967
32520,-29434,8455
31496,-27642,7943
29192,-25082,7687
26888,-17658,10759
22536,-2298,20743
15368,22022,-27640
6408,-19194,-11768
-3064,-1019,1544
-8695,12549,17673
-10487,18949,-28663
-6647,16645,-16119
2569,-2298,-23800
11273,27910,10248
14857,-15098,27399
11272,5126,-31225
7687,-8954,16134
2823,10246,8198
8966,4614,-9210
22021,11782,-6138
-31483,24070,7942
-26874,-28922,25350
-26362,-17146,-22010
-27130,-5626,-4858
-28154,3334,9479
-28153,11014,22023
-28409,17158,32519
-28409,22534,-24569
-28409,27142,-17657
-28665,30214,-12537
-28921,32518,-7673
-27641,-30202,-3321
-26617,-27898,519
-26872,-26874,2567
