-15353,19717,-24313
-15097,20741,-22777
-14841,21509,-21241
-13817,22789,-19449
-13305,23813,-16377
-13049,25349,-14329
-12537,26885,-12793
-9721,27653,-11769
-9977,32005,-8185
-9977,-32251,-7161
-10233,-30715,-6649
-9977,-29435,-5369
-8441,-27899,-4089
-8185,-26875,-4089
-8185,-25083,-4345
-7673,-22523,-4089
-7417,-21755,-4089
-7161,-20987,-4089
-7673,-19707,-6393
-8441,-19451,-8185
-8185,-19195,-8953
-7161,-18427,-10745
-5881,-18171,-14073
-6393,-18939,-17401
-8441,-19963,-19193
-8441,-20219,-19705
-7929,-20475,-21753
-8441,-20731,-25593
-8441,-22011,-27385
-8953,-24827,-28665
-9209,-25851,-30713
-9209,-25595,-32761
-6393,-25339,32519
-9209,-27387,31495
-10233,-28923,30727
-11513,-30203,27655
-11769,-30203,27143
-12025,-30459,26887
-11257,-30715,26375
-11257,-31227,25351
-12025,-32251,24071
-12537,32005,24071
-12281,32261,25095
-12793,31749,24071
-12793,31749,24071
-13049,31749,23559
-13305,30469,23303
-13305,29701,23559
-13305,29445,23303
-13049,30213,23047
-13049,30469,22535
-13049,30213,23047
-13817,30469,23815
-14329,30469,24071
-14073,30213,24327
-13561,30469,24327
-13049,31749,25351
-9977,-32251,26375
-10489,-28667,26887
-10745,-29179,26887
-12281,-29691,26119
-12281,-28667,25863
-11257,-27387,26887
-7929,-24315,27911
-7673,-22011,29447
-7929,-21243,29703
-7929,-19451,29703
-7673,-19707,29959
-7929,-19451,30215
-7673,-19451,29447
-7161,-18683,28423
-6905,-17915,28679
-6905,-18427,28423
-7161,-19451,27911
-7161,-20987,26631
-8185,-22011,25863
-10489,-24059,25351
-13049,-28923,23559
-13817,-32763,20999
-15353,28933,19463
-16889,26373,19207
-17657,24581,19207
-14841,23813,18439
-17145,23557,17671
-17145,23557,17671
-18681,22277,17927
-18425,22277,17671
-18681,22533,17671
-18425,22789,17671
-18681,22789,17671
-18425,22789,17159
-17401,23557,17927
-16889,25861,20743
-16633,28165,24583
-14329,30981,28423
-12025,-30715,32519
-11257,-27899,-29433
-10233,-25083,-29689
-10233,-20731,-31225
-12793,-15355,30471
-12793,-10491,23303
-11257,-7419,13063
-9721,-2299,5383
-4345,5637,1800
1031,14854,1800
7431,31750,10504
9735,-16634,18184
13319,-12538,18440
8967,-28410,-4088
6918,20742,-12024
4358,8198,-14072
4358,-4858,-16633
4358,-14586,-16889
6150,-19962,-14073
6406,-26874,-12537
5638,30214,-12793
4870,22278,-13561
1030,12550,-14585
-4346,3333,-12537
-8186,-2299,-9210
-12026,-3579,-5370
-15610,-2811,-1274
-17402,-2299,2822
-18169,773,7687
-19193,3333,11271
-20217,6149,13831
-20729,8709,16391
-20729,9733,17415
-20729,9733,17927
-20985,10245,18951
-20473,11269,18951
-20729,11269,20231
-17145,11781,20743
-20985,11781,21255
-19961,11525,21511
-20985,11525,22279
-19705,12293,23303
-17913,13829,24583
-17913,14085,24583
-18169,14341,25351
-18425,13829,26375
-18169,13829,27911
-17145,14085,28679
-17145,14853,30215
-16633,15109,30983
-16633,14853,-32761
-16121,15877,-31225
-14329,15877,-30201
-13817,17413,-28665
-13817,18693,-25849
-13561,19205,-23289
-12281,21509,-21241
-12281,22021,-19449
-12537,21765,-17401
-12281,23301,-14841
-11257,25349,-13305
-10489,27909,-12281
-6905,29189,-11513
-10233,32517,-8441
-9977,-32251,-6905
-9465,-29947,-6137
-9209,-29179,-5369
-9465,-28667,-4601
-7673,-26363,-4345
-7673,-25339,-4857
-7417,-23547,-5881
-7161,-21755,-6905
-6649,-21499,-7929
-6905,-21499,-9721
-6649,-20731,-11257
-6905,-20475,-13049
-6905,-20731,-15609
-6649,-21499,-17657
-6137,-21755,-20217
-7673,-22523,-22521
-8441,-22267,-24569
-8185,-23803,-27129
-8441,-26363,-29177
-9465,-26363,-30201
-10233,-25851,-30969
-9465,-26107,31751
-9465,-28411,29703
-5881,-29435,28679
-9977,-30971,27399
-10489,-31227,26887
-11769,-31739,26119
-11257,-32251,25607
-11257,32517,24839
-10489,32261,23815
-11513,31493,23815
-11769,30725,22791
-11257,30725,22023
-11001,30469,22535
-12793,29957,22791
-11769,30213,22023
-11001,29701,22279
-11257,28677,21767
-11257,29701,21767
-11001,29701,22023
-12537,28421,22023
-12537,28421,22023
-11001,28421,22279
-11001,28421,22791
-11769,28421,22791
-11769,29701,23559
-11769,30469,24071
-10745,31493,23815
-6649,-32507,24071
-9721,-30459,24583
-10489,-30971,24071
-10233,-30459,25607
-9209,-29179,26119
-8441,-26363,27143
-6137,-23291,27911
-5113,-21755,29191
-4857,-20987,29447
-6393,-19963,29703
-6137,-19195,28935
-4857,-19707,28167
-3577,-19963,27911
-5113,-21755,27143
-5369,-22779,26119
-4601,-21755,25863
-3577,-22523,25095
-4089,-23803,24839
-6393,-27131,23303
-9465,-32251,20743
-10489,29189,19719
-12281,26117,19207
-14073,24069,18183
-15865,22277,16903
-16121,21253,16647
-11001,21765,16647
-13305,22021,17159
-14073,22277,16391
-15353,22021,16391
-15097,22021,16647
-14585,22021,16903
-14329,21765,16135
-14585,22021,15623
-14329,23045,17671
-14329,24325,20487
-11769,26885,24583
-10489,30213,28167
-9465,-31995,31751
-6393,-27643,-29689
-4089,-23035,-29177
-5881,-19451,32519
-6905,-14843,26887
-7161,-9723,18439
-5369,-7675,7687
-1273,-763,3079
2567,7686,1544
6919,20486,3848
13831,-25594,13576
16391,-14586,16904
14855,-20730,4872
16135,-24058,-1784
9734,14342,-15352
9990,1286,-17144
10246,-11514,-17657
10246,-18682,-17401
10502,-24314,-15865
11270,-32762,-15865
12294,25606,-15865
9222,18438,-15097
3078,7686,-14841
-1786,-251,-13818
-5626,-4347,-9466
-8442,-5115,-4602
-10746,-3835,774
-11257,-2299,4870
-12025,2053,7687
-12793,6405,11271
-15865,7429,14343
-17145,7429,14599
-16121,9221,16135
-16121,11013,17927
-16121,11013,17671
-15353,9733,17671
-15353,9477,19463
-15097,10757,19975
-11769,12293,19207
-14073,12293,20487
-14585,11269,20999
-14585,12037,22279
-14841,12805,23303
-14841,13061,23047
-12793,13061,23559
-12281,13317,25607
-12793,13317,26375
-12537,14341,27143
-11769,14085,27911
-10489,14085,29959
-9209,14853,32263
-9465,16389,-31993
-8697,17669,-30969
-8185,18181,-28921
-7161,19461,-26105
-6905,21765,-23801
-6649,22021,-23033
-6649,22021,-19961
-6137,23557,-17657
-5369,25605,-15609
-4601,27909,-14329
-3833,30213,-12537
-3321,31493,-9721
7,-32762,-9721
-1785,-30971,-8953
-1529,-28411,-7673
-1273,-27387,-6137
-1273,-26107,-5369
-761,-23547,-5881
-505,-22523,-6905
-761,-22779,-7929
-505,-22523,-7929
-249,-22011,-9465
775,-20218,-11769
1031,-20218,-13561
-1273,-21243,-15353
-1017,-21243,-17401
7,-20730,-20473
263,-20986,-23545
775,-20986,-24825
519,-21498,-26105
-761,-23035,-28921
-2297,-24315,-31993
-2297,-25083,32263
-3065,-26363,31239
-2553,-27131,29191
-2297,-27131,28423
-2297,-27387,27399
1287,-28154,26375
-3065,-31995,25095
-3833,-31739,23815
-4345,-31739,23303
-4345,32517,23559
-4345,31493,23303
-3833,31493,21767
-4089,32261,21511
-5369,30981,21767
-5625,30213,21255
-4345,30981,21255
-4345,31237,20999
-4089,31493,20999
-4601,29957,20999
-5881,28421,21255
-6137,28421,20743
-4601,29701,20487
-4601,29701,20999
-5113,28677,21255
-5113,28165,21255
-5113,28421,21255
-4857,30213,21511
-3833,-32507,22279
-3577,-31995,23047
-3065,-31227,23559
263,-29434,22535
-2297,-29435,23303
-2297,-29179,23303
-2809,-29179,24327
-1785,-28155,24839
-505,-24571,25863
2311,-21754,26631
2311,-19962,28167
1799,-19194,28423
1799,-17914,27911
2823,-18170,27143
3335,-18682,26631
2823,-18938,26631
1287,-19194,26887
2311,-19450,25863
2567,-20474,24071
2567,-22266,23303
1287,-22778,23047
-2041,-26619,21255
-4857,-31995,19463
-4857,30213,18183
-7417,26373,17671
-8185,25861,16903
-8185,25349,16391
-6905,23557,15367
-3577,23557,14855
-8441,22533,15367
-8697,23557,15367
-9209,23557,16135
-9721,23301,16135
-9721,23301,15623
-8441,23301,15111
-7929,23557,14855
-8185,25605,17927
-7929,26885,21255
-6905,27909,23815
-3833,30981,27911
-505,-29435,-31993
519,-24314,-28665
775,-20474,-29433
-505,-15867,31239
-249,-9211,26375
-249,-3835,19719
1031,6,10248
3591,6406,3848
7943,14598,1800
13319,30214,7176
18439,-18426,13576
19207,-11770,12552
17671,-23034,-1784
20230,-27130,-8696
14086,12806,-16632
12806,-1274,-17401
12806,-13306,-18681
13062,-18682,-16633
13830,-25850,-14585
13830,29702,-14585
14086,23046,-14841
8710,15110,-15353
4358,5894,-15097
1286,-506,-11770
-3578,-3835,-7418
-7162,-3067,-3066
-9466,-1531,262
-10489,5,5127
-12537,1797,9223
-13305,5637,11271
-13817,8965,13575
-13561,9477,15367
-15609,9477,17671
-16121,9477,17415
-16377,9733,17415
-15353,10245,17671
-15097,10245,19463
-14841,11013,20231
-11769,12805,18951
-13561,13317,20743
-12793,13573,21511
-12537,14085,23047
-13305,13829,23559
-13305,14341,23559
-12537,14085,24839
-12281,14341,26887
-12025,14853,28167
-12537,14853,28423
-12281,14597,29447
-11513,14853,31495
-10233,16389,-32249
-10489,17413,-31225
-10489,17157,-29689
-10489,17413,-26873
-8185,18693,-24825
-8441,19973,-23033
-9209,21253,-21241
-8185,22021,-18425
-7673,23557,-15865
-7929,24837,-14329
-6649,27653,-13049
-6393,29189,-11001
-5625,30725,-9209
-2041,32261,-9721
-5369,-31739,-8185
-5113,-30459,-7417
-5625,-28923,-5881
-5625,-27387,-5625
-5369,-25339,-6137
-4857,-24315,-6905
-5113,-23803,-7417
-6137,-23803,-7929
-6393,-22267,-9465
-5881,-20731,-12793
-6137,-20731,-13817
-6649,-21243,-15097
-6905,-20987,-17145
-7161,-21243,-20985
-7673,-22779,-23289
-6649,-22267,-24057
-7417,-23291,-25849
-9465,-24315,-29177
-9977,-25595,-30969
-9465,-27899,-31993
-9721,-27643,32007
-10745,-28155,29959
-12281,-29691,29191
-11769,-30459,29447
-8185,-30459,28167
-9465,-30715,27143
-11513,-30971,25863
-14329,32517,25863
-14585,30213,25863
-13049,30213,24839
-12793,30981,23559
-13305,31237,24071
-13305,31237,24839
-14073,30981,25095
-14841,30469,24071
-15097,29189,23047
-16121,27909,23559
-15865,27909,24071
-14841,27909,24071
-15353,28677,23815
-15097,28677,23047
-15353,28165,23559
-15865,28421,24071
-16377,28677,23815
-16377,28421,24327
-17401,28677,24327
-15353,30981,24327
-15353,32261,25863
-15353,32517,26119
-13049,-32507,25095
-15609,-32507,25351
-16377,-31227,25607
-15609,-30971,26631
-15609,-31227,27143
-14073,-27131,28935
-11513,-22523,30471
-11257,-21755,30727
-12537,-22011,30471
-12537,-21243,30215
-12793,-20475,29703
-12537,-19963,29703
-12025,-20219,29703
-11769,-22267,29703
-12281,-22523,28679
-14585,-23035,27143
-15097,-24571,26887
-14329,-26619,26887
-14841,-30459,25095
-18937,30469,23047
-21241,26885,21511
-22009,24581,20743
-22265,23045,20743
-23289,21765,19975
-23801,21253,19463
-21753,21253,18439
-23545,20485,19719
-23545,20997,19719
-25081,21253,19463
-25337,21253,19207
-23545,21509,18951
-23801,21509,19207
-24313,21253,18951
-24825,20741,21255
-25081,22021,23815
-22009,25605,27911
-18681,28933,-31737
-17657,-31995,-26105
-16377,-26875,-23289
-14073,-21243,-23801
-16633,-16123,-26617
-18937,-9979,-31225
-18681,-3323,27399
-16889,2565,18952
-15097,10245,14856
-13049,17157,11272
-9209,30725,12552
-3577,-14587,21512
-249,-4091,23560
-249,-15867,9224
-249,-20987,1288
-6393,19205,-8952
-6138,4357,-10488
-6138,-11259,-11513
-6394,-21243,-10233
-5370,-28411,-8953
-4346,28165,-9209
-2810,20997,-8953
-7418,12293,-9977
-13306,3589,-11001
-18426,-2555,-8186
-20730,-6651,-3834
-24058,-7675,6
-27385,-7419,3846
-27385,-4859,6918
-27641,-251,11782
-28409,2821,15623
-29689,3845,16391
-30201,4613,17415
-30201,4357,19463
-30201,5125,19975
-30201,5381,19719
-29945,6405,19719
-29945,6405,20743
-29177,6149,20999
-26617,6661,20487
-29177,6661,22535
-29177,6917,22791
-28921,7173,23303
-28921,7429,24839
-27641,7429,24839
-27641,7685,25863
-27129,7685,26631
-27129,7941,28679
-27385,7941,29447
-26361,7941,30215
-24825,9733,32007
-24313,11269,-31225
-22777,11781,-29689
-22009,11525,-28921
-22009,11781,-26873
-21241,12549,-24057
-20985,13829,-22521
-21241,14597,-21241
-21497,15365,-19193
-21241,16133,-16377
-19193,18949,-13817
-17145,21509,-12793
-16377,22789,-11769
-17401,24325,-9209
-15865,25861,-8953
-16121,28165,-7161
-16633,30213,-6393
-16889,31237,-5113
-16377,32517,-4089
-15609,-30459,-4089
-14841,-28155,-5113
-14841,-27387,-6137
-15865,-27643,-6137
-15865,-26619,-7417
-15865,-25595,-10489
-16121,-25083,-12025
-16377,-24571,-12281
-15865,-24315,-14585
-15609,-24571,-18169
-15865,-26107,-21241
-17145,-27131,-22521
-17913,-28155,-24313
-18169,-29179,-26873
-16889,-29179,-29177
-17401,-29179,-29433
-18681,-29435,-29945
-18937,-30971,32519
-18681,-32763,30215
-18425,32517,30215
-17657,-32763,29703
-20217,30469,28679
-19449,30213,26375
-18937,29445,26375
-19449,28421,26887
-19705,28421,26375
-19705,28165,25095
-18937,27141,24583
-19449,26629,24583
-20473,26373,24839
-20729,26117,25095
-20473,26117,24839
-19449,26117,25095
-18425,25861,24839
-19193,25605,24071
-19961,25605,23559
-19961,25861,23559
-18937,26117,24583
-19449,25349,24583
-19961,25605,24327
-19961,25861,25351
-19961,26117,25351
-18425,27909,25607
-17913,28677,25607
-17913,28933,25607
-16889,29701,25351
-17657,30213,26375
-17657,30725,26375
-16889,30981,26375
-15609,-32251,28167
-14073,-28923,29447
-13049,-26363,30215
-11769,-24315,30215
-12537,-24571,30215
-12793,-24059,29959
-12281,-23547,29447
-12025,-23291,28935
-12025,-23035,28423
-11769,-23291,28423
-12537,-24571,27655
-13049,-26619,26887
-13049,-27899,25863
-13049,-28923,25351
-15353,32517,23559
-17401,28677,21511
-18681,25349,20487
-18681,23045,19463
-18937,21765,19207
-19705,19461,18695
-19961,18181,18183
-20217,18693,16903
-21241,18949,16903
-19705,18693,17927
-19705,17413,18183
-19961,17413,17927
-20473,18437,17671
-20473,18693,17415
-20217,18693,18183
-20473,19461,20231
-19193,22277,22535
-16633,25093,27143
-14073,28421,32263
-12793,32517,-28921
-9977,-28411,-28409
-10233,-23803,-29689
-13049,-20219,-32505
-14585,-15355,27655
-13561,-11259,18183
-11513,-5371,9223
-7161,5125,7176
-3065,14085,6920
1031,27654,9224
5639,-19962,16392
8455,-11002,17416
7431,-21754,3592
7175,-26618,-3576
3846,14854,-12792
3590,1286,-14072
3590,-12794,-14073
3334,-22778,-13305
4614,-30202,-12537
5126,25606,-12281
6406,18182,-12281
2054,8966,-12793
-3066,517,-13305
-6394,-4859,-10490
-8954,-9467,-5114
-12794,-11003,-762
-15610,-9211,1798
-16377,-6651,5126
-16633,-3835,8454
-17913,-1019,11782
-18425,1541,13831
-18169,3845,15623
-17913,4613,17159
-17657,4613,18183
-17657,4613,17927
-16889,5125,17415
-16377,6405,18439
-15097,5893,19463
-14841,5893,18695
-16889,4869,19463
-16377,4613,19719
-15865,5637,21511
-15609,5637,22279
-14329,5637,22023
-14841,6149,22791
-14329,6661,24071
-14073,7685,25607
-12793,7685,26375
-11769,7941,27399
-11257,7941,28679
-11513,8453,30727
-9465,11269,32263
-8441,11781,-31481
-7673,12037,-28921
-8697,12805,-26617
-7417,13061,-25337
-6393,15109,-24057
-5881,16133,-21753
-6649,16645,-18937
-5369,19205,-17145
-5113,21509,-15609
-4345,23301,-13817
-2809,24837,-11769
-2553,26117,-12025
-2553,28165,-9721
-2041,29445,-9465
-1017,31237,-7929
-505,-31739,-6905
263,-30202,-7161
7,-28922,-7929
519,-27898,-9465
263,-26362,-9721
263,-24570,-10489
-249,-24571,-12793
519,-24826,-14585
1031,-25082,-15865
1543,-25082,-18937
1799,-25338,-20985
263,-26874,-23289
-1273,-27899,-24569
7,-27898,-27129
-249,-27899,-30457
1031,-28666,-32249
1031,-29690,32519
7,-30458,30983
-505,-31227,28935
-505,-31739,26375
-505,32261,26631
-761,31493,25607
-1785,29445,23815
-505,29957,23303
7,30214,23047
7,29702,22791
7,29446,21511
-1529,28933,21255
-1785,28677,20999
-1017,27397,20999
-1273,26885,20743
-2809,26885,19975
-3065,25349,19975
-3321,24325,19719
-1017,24325,19463
-1017,26373,19207
-2809,26629,19207
-3833,24069,19463
-2297,24325,20231
-2041,25093,20231
7,27910,20743
7,29958,22535
7,29190,22535
263,29446,22279
1543,31750,22535
2311,-32506,22279
2311,-32762,21255
2311,31238,23047
3335,-31482,24583
4103,-27130,26631
6151,-24826,27399
6151,-24826,26631
4871,-25082,25607
6407,-24058,25351
7431,-22778,25607
7687,-21754,25351
6919,-23546,24583
6919,-25082,24071
7175,-25338,24071
7943,-25338,22279
6919,-25594,21511
5639,-29434,20999
3335,30470,18439
1799,26630,16391
1543,24326,15623
519,22022,15623
-1785,19205,15367
-1529,18693,14599
-1529,18693,13319
-761,18437,13319
-1017,17669,13575
-1017,17413,12807
7,17414,13063
-505,18181,12807
7,19462,12807
7,19206,13063
775,20998,14087
2055,24070,17671
3847,27654,21511
3847,28934,25607
5383,31750,29959
7687,-29946,32519
8199,-25338,31751
5383,-22010,29191
4871,-18682,23559
5639,-13818,16135
7175,-10746,6151
9223,-2810,519
15367,6918,-1272
20486,17414,-504
25606,-29946,8712
27399,-15098,15112
27399,-16634,6152
26631,32006,-9464
25094,17670,-16376
22790,6150,-17912
22534,2566,-19448
24326,-16378,-19449
24582,-23290,-17401
24582,-32250,-16121
24582,23302,-16633
24326,15366,-16889
20230,7174,-16633
15110,518,-16633
10758,-5882,-13050
7174,-10234,-8954
6918,-7930,-4090
4870,-6138,262
2567,-2810,4358
3591,1286,6919
2567,3078,8711
1287,4358,11015
519,4870,13319
775,5894,14599
1031,6662,14087
1799,6918,13831
1543,6662,14087
2055,7174,14855
2055,7174,16135
2311,7174,16135
2055,6662,16135
1287,6406,15879
3591,7942,18951
4359,7942,19463
4615,8966,19463
5895,9734,20231
6151,9478,22279
6151,8966,23303
6407,8966,23303
7175,9990,24583
7943,10246,26375
8199,11014,28423
8199,12038,29959
7943,12038,31239
9735,14086,-32505
10503,14342,-29689
11015,15110,-27641
11527,17414,-26361
11271,18182,-25081
11783,19974,-21753
12807,21766,-18937
13063,22790,-18425
14343,24838,-16377
15111,26886,-14585
15367,29446,-13305
15623,30726,-12793
14855,30726,-12793
15367,-31482,-11001
15111,-30714,-11257
16135,-29946,-12025
17927,-27898,-13305
17671,-26106,-13561
17415,-25594,-14329
17159,-25594,-16889
17159,-24826,-18681
16903,-24570,-20473
16391,-25082,-22009
16647,-25338,-23801
16903,-26362,-26361
16647,-26618,-29689
16391,-26618,-31481
16647,-27130,-32505
16135,-28154,31239
15879,-28922,28679
14599,-30458,26887
14855,-31738,26119
14599,-32506,25351
14599,32262,23559
14599,31494,21767
14599,31238,20999
14343,31494,20999
13319,30470,19719
12295,28934,18183
12551,28678,18183
13319,28422,18183
13319,27910,18183
13575,27142,17927
11527,26630,17671
10503,26118,16647
11783,25862,16903
12039,25606,16647
12039,25862,16135
11527,26118,16391
11527,26118,17159
12039,25606,17159
12039,25094,16647
11783,25350,16903
12039,25350,17159
13575,27142,19207
13319,27910,19463
13319,28934,19463
14599,30214,19719
14599,30982,19463
13575,32006,19719
14855,-32762,20487
15623,-30970,22279
15623,-29946,22279
20231,-24314,24839
20487,-22778,24839
20743,-20730,25863
23559,-15866,28167
27143,-7930,32007
27655,6,-29688
28935,5126,-26360
31495,9222,-22264
-30713,17158,-16376
-27897,26118,-8952
-25081,-31226,-504
-21753,-20986,9736
-20472,-13306,16904
-22776,-7674,23816
-28152,-3834,29960
-32248,-1274,-30456
29960,4358,-26871
25352,8710,-22775
23816,12038,-18423
21768,15366,-12023
18696,18694,-7159
16136,23558,-3319
13576,27910,-2295
7688,28166,-6647
4360,28166,-9463
-2040,31237,-15607
-3064,-29179,-13559
-2552,-22523,-7415
-1016,-19963,-2807
-1528,-19451,-3831
-8440,-29691,-27127
-17400,13829,777
-17144,-2043,-21240
-15097,-16891,32008
-13561,-32251,21512
-11001,14853,12296
-8441,-251,3335
-4345,-9467,-761
-506,-26875,-3321
2310,16902,-9721
3078,1286,-16121
5638,-9722,-18426
5638,-14842,-19450
4614,-19706,-20986
4870,-26618,-20986
5894,-29946,-20986
6406,-32250,-23034
6662,31494,-24826
5894,30214,-25594
3846,29446,-25594
5638,25350,-27898
5638,24070,-29946
5126,20742,-31482
5382,17926,-32506
5382,16646,31238
5638,14342,28166
5894,11526,26118
6150,8710,25094
5638,5894,22534
5638,3334,19974
6918,262,18182
8710,-1274,16901
9478,-3066,15109
9734,-6138,12549
10758,-8442,10501
10758,-10234,10245
12294,-12026,8965
13062,-13562,6405
13318,-15610,5381
15110,-17146,5637
15622,-18170,5381
15622,-17914,4869
17926,-16378,4613
18694,-16122,5381
17670,-15610,5893
19206,-13306,9477
19718,-11258,10501
21766,-7418,12549
23046,-5114,15621
23302,-1786,18437
23302,2566,21254
22790,5638,24326
23558,10502,27654
23814,16646,31750
22534,19974,-29178
22022,24582,-25850
21766,29958,-22522
21766,-31226,-18682
22022,-26874,-15610
22022,-22010,-12026
20486,-17146,-8442
19974,-14074,-6138
18694,-11002,-4346
18438,-7674,-2554
18182,-4346,-250
18182,-762,1286
17927,1286,2823
18183,3078,3847
16391,5382,5127
13575,6150,5639
14087,8710,6919
15111,10758,7175
15111,12806,7943
15111,14342,8199
14855,14598,9223
14855,14854,9735
13831,15878,9735
13831,17414,9479
14599,18182,10503
14599,18182,10503
13319,18438,10247
13063,18694,10503
13063,18438,10247
13319,18694,10759
13319,18694,10759
13319,18950,11015
12295,19462,11015
11783,19462,11527
13063,19718,12039
12807,20230,12295
12551,20230,12295
12295,21510,12295
12039,22278,12039
12039,22534,12039
10247,21510,12295
12551,21766,12039
12295,23046,12551
12807,24326,14087
13319,24070,13575
11527,23046,13831
10759,23046,13575
11015,25094,13575
12551,26118,14343
12295,25094,14599
11271,23814,14087
11015,24838,15111
12295,26886,15623
12551,26886,15367
12295,26630,15367
12039,27654,15623
12295,29958,16903
12807,31494,18183
14343,31750,18183
14087,31750,17671
13063,32262,17671
14343,-31738,19207
14855,-30458,20999
16903,-26874,22535
17671,-23802,22791
15367,-23290,23303
16391,-23290,23303
17927,-20474,23815
18695,-19706,23815
19975,-19450,23559
20487,-18938,23303
19975,-20218,23303
19463,-20986,23047
19463,-21754,21511
17671,-23802,19975
17927,-25594,19975
16903,-28410,18695
14087,32518,16391
11271,29958,15111
11015,26886,15111
10247,24070,14599
9223,22022,14087
9223,22022,13831
9223,22790,13831
9223,23046,13575
9223,22278,13319
8967,20998,13319
8455,20998,13319
9479,21766,13063
9991,22790,13319
7943,23046,13063
9479,24070,14599
9479,25862,17671
12551,29190,23559
16903,-32250,26887
17415,-27898,29703
17927,-25338,32519
17671,-21498,32519
16391,-15610,30215
14343,-11770,23815
14855,-9978,13575
16903,-5882,4871
23303,4358,1544
27911,12294,1032
31239,24838,3848
-30457,-21754,13320
-28921,-9210,17672
-28921,-16634,4872
-31225,31238,-9976
31238,17158,-14584
31494,6918,-15608
-31994,-3322,-15865
-31738,-12282,-16121
-32250,-21242,-16121
32518,-31482,-15609
30982,31494,-14841
29958,18182,-16377
24326,7430,-17401
20998,1798,-15353
18950,-2298,-11258
15622,-3322,-5882
11526,-3322,-2298
9990,-1786,1286
10247,2822,5383
8711,6662,9735
8711,7686,12295
7431,8454,13063
8199,9734,14087
8711,10246,16135
8455,10246,15879
7943,9734,15367
8711,11014,16135
8711,12038,17671
8967,11782,18183
8455,11782,18439
8199,11782,19207
8711,12550,19975
9991,14086,21255
11015,14598,21511
11271,14342,21767
8711,14086,22023
11271,15366,24583
11527,15366,26119
12551,16390,27399
13575,16902,27655
13319,17158,29191
13063,18438,32263
13063,19718,-30713
15367,21254,-29433
15623,22790,-27385
15623,23558,-24313
16135,24838,-21241
17415,26374,-20217
17415,28166,-18169
18439,30214,-14841
17415,31750,-11769
17159,-32506,-10489
18439,-29946,-9465
19207,-27386,-7161
19719,-25338,-4857
20231,-22778,-4601
20231,-20986,-4089
20999,-19962,-3577
21767,-19194,-2553
21511,-17402,-2553
19207,-17146,-2809
22023,-15610,-4345
22023,-15354,-4857
22279,-15098,-6649
22279,-14330,-9209
22791,-13306,-10745
23303,-13050,-12025
22791,-14074,-14585
23047,-16122,-17657
21255,-17658,-20729
21255,-18170,-22265
22279,-18682,-24313
23047,-20218,-27385
22279,-21242,-29689
22023,-22010,-30969
21767,-22266,-31737
21511,-22266,31495
20743,-24570,29447
20743,-25082,27911
19975,-26362,27655
19975,-26874,26375
19975,-27386,24327
19719,-29690,23303
18695,-31482,22791
18695,-31226,22791
15623,-30970,22535
17671,-31482,20743
18183,-32762,20743
18439,32006,20487
18695,32006,20231
18439,32006,19975
17415,32262,19975
16903,30982,19975
18695,31238,19719
18695,31238,19463
18183,29446,19207
17927,29702,20743
17927,30214,20999
18183,30214,19719
19463,31750,19719
19463,-32762,20999
19463,-32250,22535
18951,-31226,22791
19207,-30714,22023
18951,-30458,22023
20231,-29434,22023
21511,-28410,22279
22791,-24570,23815
23559,-20730,25607
24071,-20474,25863
22023,-20986,26631
23815,-19450,25607
24327,-18170,25863
24839,-17658,25095
27143,-17146,23559
26119,-17914,23303
25095,-18938,23303
24839,-20218,22791
24839,-22522,21255
23047,-24058,19975
20743,-28154,17415
18951,-31738,16391
18439,30726,15111
18183,28422,14087
16903,26118,13063
14855,24326,12551
14855,24070,12807
14599,23558,12551
14599,22022,12295
13063,21254,11271
13063,21254,11015
14599,22022,11527
15879,22790,12039
15111,23046,12039
13831,23814,12807
11015,23558,13831
15623,26886,16647
18439,28934,21255
20743,-32762,25095
22535,-28922,29191
22535,-26106,30471
22279,-22010,29191
20231,-18426,26119
19463,-14586,19975
20231,-11002,9735
21767,-6394,263
25863,3078,-2808
32518,11782,-3064
-29178,24838,776
-24825,-21498,9992
-23289,-11770,12552
-23289,-19706,264
-26361,27654,-14328
-28922,14086,-18936
-30202,1542,-19960
-28410,-10234,-21241
-27130,-17402,-21241
-27386,-23802,-19193
-28410,32518,-18169
-27898,24582,-18425
-30202,22022,-19193
31238,7686,-19961
26886,1286,-17657
23046,-2810,-12538
20230,-3578,-8186
18182,-3322,-5370
15622,-2042,-1274
13318,2310,3591
13575,6406,7175
12551,7942,8711
12551,8454,10247
12039,10246,12295
12039,10502,12295
12551,10502,11527
13319,10502,11527
13319,11270,13831
13319,12294,15111
13319,12294,14855
14855,12038,14599
13831,12038,15367
14599,12550,16903
13831,13062,18439
13831,13318,18439
14855,13574,18439
15111,13830,19207
12295,13830,21767
15623,14086,22279
15623,13830,22791
17671,14342,24839
18183,15622,26887
17927,16646,28167
18439,16902,29191
18951,17158,30727
20231,18694,-31737
20487,19718,-29689
21255,21510,-28153
22535,22790,-25849
23559,24326,-23289
23559,25862,-20729
23559,26630,-20473
22791,28166,-18681
22791,30982,-15353
22791,-32762,-13305
23815,-31738,-13561
23815,-30202,-13561
24327,-27642,-13049
24583,-26362,-12281
26119,-25338,-12025
26887,-23290,-12793
27655,-21498,-14073
25095,-21754,-13817
25351,-21498,-16377
24839,-21754,-17401
25095,-21498,-20985
25351,-20986,-23801
25863,-21242,-24569
26119,-20986,-26105
25351,-21754,-30201
25351,-22522,-32761
25095,-24058,-32505
24839,-23802,32007
24327,-25082,28679
24583,-26362,24839
23303,-27130,23559
22791,-27386,23559
23559,-28410,22023
24327,-29178,19463
23303,-30714,19207
23047,-31226,19207
21511,-31738,18695
21511,-32506,16903
21511,31750,15879
20999,31238,16135
20743,31238,16135
21767,32006,16135
19207,31750,15879
20487,30982,14855
20487,30470,16135
20487,29702,15367
20743,29702,14599
20743,29446,14343
19719,28678,15367
19463,29190,16647
19463,30214,15879
19463,30470,14855
19463,29190,14599
19463,28934,15879
20743,31238,17159
20743,-31738,17415
20743,-30714,16903
21255,-31226,16903
22279,-30970,17671
22279,-29434,18695
22279,-28666,18439
22535,-28666,18695
24071,-28154,18439
25351,-25082,18951
27143,-21498,20999
27399,-20474,23303
27399,-20474,22791
24071,-20730,22791
26631,-17914,21255
27399,-17402,21255
27911,-17658,21255
27655,-18682,19719
27143,-19706,19719
27143,-19706,19975
27143,-20474,19207
26887,-20730,18183
24839,-24826,15879
21255,-31994,13575
19463,30726,13319
18439,28934,11527
17671,25350,10247
17927,24582,9991
17927,24070,9991
17159,23558,9735
16135,23302,10247
15879,23046,10247
15623,22790,10247
17159,24070,9991
16647,23558,8967
15623,22790,8711
15111,23558,9735
17159,24326,11015
15623,25094,13063
18183,30214,17671
18951,31238,22279
21767,-30970,25863
23815,-26106,28935
24327,-22778,28935
20999,-18682,26887
19975,-14586,21767
22535,-9210,13063
23047,-6138,1543
25351,-762,-3065
31238,8454,-3576
-26874,21254,-2296
-23546,-25850,6664
-23033,-12538,13064
-22777,-15610,3592
-23545,-31226,-12280
-26106,19974,-19192
-28666,8454,-19960
-30202,-6906,-22009
-26618,-16378,-23033
-24570,-19962,-21497
-26618,-28666,-20473
-27386,28166,-19705
-28410,20998,-19449
32518,17926,-19449
28166,3590,-19449
23558,-2810,-15866
20230,-4858,-10746
17158,-3066,-6394
14854,6,-2809
12038,2822,1799
10759,5638,4871
11015,8454,7175
11015,10758,9223
11015,11014,10759
11015,11270,11271
11271,11014,11015
10503,11014,11527
10759,12038,13063
11271,12550,14343
11015,12806,14343
9735,12038,14343
9735,12038,15111
9735,13318,17415
12551,14598,17927
13063,15366,17671
11271,14086,18183
9735,13830,19719
13319,15878,21511
11783,15878,22791
11783,16390,23559
10759,15878,24327
12295,15366,25351
14343,16390,27143
15367,18182,28935
14087,19718,31751
13831,19974,-32249
14855,20486,-30457
16135,22278,-28921
15623,23302,-25849
15367,24582,-22265
16391,26374,-20473
16647,27910,-19449
17415,30726,-17401
17671,32262,-15353
17671,-31738,-13561
17159,-30458,-12793
17671,-28922,-12793
18183,-27386,-11769
18183,-26362,-11001
18439,-25594,-11257
19975,-22522,-11001
20231,-20218,-11257
19975,-19962,-12793
16391,-20474,-13049
17415,-19450,-15353
17415,-19962,-15865
19207,-20218,-18937
19463,-20474,-22265
18951,-20730,-24825
17927,-20730,-25337
17927,-20986,-26617
17927,-20986,-30457
17927,-22010,32519
15367,-24058,31751
14855,-25082,30727
16135,-25082,27655
14855,-25850,24839
13831,-27898,24839
13831,-29178,24071
13063,-29178,21511
13319,-29690,20743
13575,-29946,20743
11015,-31226,20999
11015,-31738,18695
12295,-31482,17671
11527,-31994,18695
8967,31494,18695
9735,31494,18183
7175,30982,18183
8711,30470,17159
8967,29958,18183
9479,29958,18183
7943,29958,17415
8199,30214,17159
8199,30214,18183
7431,30214,18183
7431,30214,18439
7431,30470,18439
6919,30726,18439
7943,30726,18439
7687,31494,19207
7687,-32506,20231
8199,-31226,20487
8711,-31226,20487
8455,-30458,20999
7175,-29946,21255
7175,-29178,21511
7943,-27898,22791
9735,-25594,23047
11015,-22266,24583
11271,-19194,26375
10759,-18682,26631
11271,-17914,26119
8455,-17914,27143
11015,-18170,25095
11271,-18426,25095
11015,-19450,24839
11271,-19450,23815
11271,-19194,23559
9479,-21242,22791
8711,-22778,22279
6663,-24570,20487
5895,-28410,17415
2567,-32506,17159
1031,28934,16647
263,25606,15367
-505,24837,14855
-2553,24581,14599
-1529,24069,14599
-1273,23045,13831
-1785,23301,13831
-3321,23813,14343
-4857,23045,14343
-4345,23045,14343
-3321,22789,14343
-3065,23045,13575
-4857,23045,14343
-3833,25605,17159
-5881,25605,20487
-505,29701,25607
2055,-31482,29959
3847,-26106,-32249
4103,-22778,-31225
3847,-18426,32007
519,-15098,27655
7,-10490,19975
7,-7418,8711
4615,-1786,1287
9479,6150,776
14855,16134,776
20999,-30970,9224
23815,-15354,16136
21511,-15610,10760
18951,-30458,-5368
16390,18694,-14584
15622,7430,-16120
16646,-4602,-16633
16646,-15354,-17657
16902,-21498,-17401
16646,-27642,-15353
16646,29446,-15353
15878,21510,-15609
11014,12038,-15865
5894,7430,-14585
1798,-2298,-11514
-3322,-4347,-5626
-7418,-4091,-2298
-8954,-2299,774
-8953,1285,5383
-11001,3845,9735
-12281,6405,12551
-13305,7429,13575
-13305,7941,14599
-13561,8709,17415
-11513,9989,17159
-11513,10501,16903
-12793,10757,17671
-12793,11013,18439
-12025,11525,19207
-12537,11525,19463
-12537,11013,19719
-12537,11269,21511
-12537,11781,22791
-11513,12037,22791
-11257,13573,22535
-11257,14341,24583
-12281,13317,26631
-10233,13317,26631
-11769,13317,27399
-9721,13573,28167
-9465,14085,30727
-7673,15365,-32761
-7673,15877,-31993
-7417,15621,-30969
-8185,15621,-28153
-8185,17157,-25081
-7417,20997,-23289
-5625,21765,-23289
-6137,21253,-19961
-5881,22533,-16633
-5625,24581,-15353
-5369,27141,-14585
-4089,29445,-11513
-3321,31749,-8697
-4601,-31995,-7417
-3833,-30971,-7929
-2809,-30203,-8185
-2809,-29691,-7161
-2041,-28155,-6905
-2041,-25851,-7161
-2553,-25083,-7929
-2553,-24315,-8953
-2553,-23547,-9977
-5881,-23291,-9209
-1785,-21499,-13561
-2553,-22779,-15609
-2809,-23291,-17145
-4345,-23035,-19961
-4345,-24059,-22521
-4601,-25083,-24057
-3577,-24827,-25849
-3321,-24827,-28409
-3321,-26107,-31481
-5113,-28155,-31993
-3321,-28923,31751
-3577,-28923,29447
-4089,-29435,27911
-5113,-30459,26887
-5113,-31227,26375
-5369,-31739,25351
-6393,-32251,24327
-7161,32005,23815
-7161,31749,23559
-7929,30469,22023
-7161,29445,20999
-6905,29189,20743
-7929,28677,22023
-7673,28933,22023
-10489,28677,22791
-8697,28165,20999
-8697,27653,20999
-8185,27141,21255
-8185,27909,20999
-8185,27653,21255
-8441,27397,21255
-8185,27141,21511
-8185,26629,20999
-7417,26885,20487
-8185,27141,20487
-7161,27653,20487
-7161,29445,22279
-6905,30725,23047
-7161,31749,23303
-6905,32005,23303
-6649,32261,23815
-4345,-31739,23815
-4857,-30715,24071
-4345,-30459,24071
-4601,-28155,24583
-2553,-24571,27399
-505,-22011,29447
-1529,-22523,28935
-3577,-22779,27655
-5881,-23291,27655
-249,-21243,26375
1031,-20474,27399
1031,-20218,26375
-761,-21755,24327
-1017,-23035,24327
-761,-25083,24071
-1017,-25595,23815
-2809,-27643,21511
-4345,32261,18183
-7417,27653,17671
-7673,24837,17159
-7929,23301,16647
-8441,22277,15879
-10233,21765,16135
-10233,21509,16135
-10745,21253,15623
-9977,20997,15367
-11769,19461,14087
-11257,19717,14087
-10489,19717,14087
-9721,19973,14087
-9465,20229,14599
-9721,20485,15623
-9209,23045,18439
-10745,23301,20487
-4857,27397,25095
-3321,30469,29447
-1785,-30971,-32249
-761,-26619,-31993
-761,-21243,31239
-3065,-16891,26375
-3065,-13051,19719
-1273,-10491,8967
3079,-4090,1543
7431,3590,8
12807,13062,1032
17159,30982,9480
20487,-18938,15112
19719,-18682,8200
16903,30982,-6904
14854,16134,-14840
15110,4870,-17400
13830,-8186,-19193
13574,-18938,-19449
14342,-25338,-18425
15622,-31994,-16889
16902,26374,-17145
16390,18438,-16889
9478,7942,-16633
4870,4102,-15609
1542,-4602,-12794
-1530,-7163,-8186
-4858,-6907,-3322
-8442,-5115,6
-8953,-2299,3590
-8953,773,7431
-10745,3333,10759
-12025,6149,13063
-9721,7685,13319
-9465,7685,14855
-9721,7173,14599
-11257,6405,14855
-11001,6661,14855
-9465,8453,16647
-7673,9477,18439
-8697,9477,18439
-9465,8453,17671
-9465,7941,18439
-7417,9477,19463
-7673,9221,20487
-8441,9477,20999
-8697,9477,21255
-6905,9733,22535
-5881,11525,25351
-7161,11781,27143
-6137,11781,26631
-4601,12293,28167
-4345,13317,29703
-3321,14597,32519
-2553,16389,-30969
-2041,16133,-29689
-1529,15621,-28409
-1529,16901,-25593
-1529,17925,-24313
-761,18693,-22009
2055,21254,-19705
2567,23302,-17145
3079,24838,-15353
2055,26374,-13049
2823,28166,-12793
2823,30726,-11257
4359,-32762,-9977
4359,-30970,-9465
5383,-29690,-9465
5639,-27898,-8697
6663,-28154,-8697
6663,-26874,-9209
7175,-24826,-10489
6919,-23802,-12025
5895,-23546,-11257
7943,-23290,-15609
7175,-23802,-17657
7431,-23802,-19961
8711,-24314,-22777
8455,-25082,-24825
7943,-26106,-26361
7943,-26362,-29945
6407,-27130,-31737
6151,-28154,32519
6407,-29690,31239
8455,-29690,28935
7175,-29434,26375
7175,-30714,25351
6151,-32250,24327
6407,31494,22279
6151,31238,21255
5639,30982,21255
4615,30470,20999
5383,29702,20999
5383,28934,19207
5639,27910,17415
5383,27910,17671
4871,26886,17927
4615,26118,18183
3847,26118,18695
4615,25606,17671
4871,24838,17415
5383,24070,17415
5383,23814,17415
5383,24582,17415
5383,24838,17671
4871,24582,18439
4615,25094,18183
5639,25094,17159
6407,24838,17415
6919,25094,17159
6919,25606,17159
7431,27398,17927
7431,28678,18695
7687,29702,19207
7687,29446,18951
7943,30470,19463
7687,32262,19463
10247,32518,19975
10247,-32250,20743
12295,-29690,21767
12295,-25850,23815
12295,-24570,24327
13575,-24826,24071
12807,-24826,24327
13063,-24058,22023
13575,-23546,22279
14599,-22778,22023
15879,-23034,22279
15623,-24826,21255
13831,-27898,19207
13575,-28922,19207
13575,-29690,18951
11527,32006,15879
8455,27398,13319
7175,24326,12807
5639,22278,12295
5895,20742,11527
5639,19718,10759
5895,18694,9735
5639,18950,10759
5639,18694,10759
5127,17414,10503
5895,17158,10247
5127,17926,10247
5383,17926,9735
5127,16902,9991
6151,17926,10247
6407,19718,13063
5383,20486,15111
9735,25862,19719
12807,27654,23303
14343,30982,27911
15623,-30458,29959
15111,-25850,28423
13063,-20730,25351
12807,-15866,19975
13319,-12538,9735
15879,-8954,-761
20998,-1786,-4601
26886,6918,-4344
31238,23046,1544
-30713,-24826,9480
-29945,-18426,8456
-29945,-28410,-5112
-32506,20230,-16888
30982,7430,-20472
29190,-5882,-21753
30726,-18170,-22777
32262,-23290,-22777
-32506,-28922,-21241
32006,26886,-20217
31750,18438,-20217
27142,10502,-20217
24838,7174,-20217
19974,-4090,-17914
16134,-8186,-13562
11782,-9210,-8698
9478,-6906,-4346
8710,-4858,-1274
8454,-1786,2822
7943,2566,6407
6663,4870,8199
6151,5382,9735
6407,6150,11271
6407,6150,11527
5895,6150,11527
5895,6406,12807
6407,6150,13319
8199,7174,14087
8199,8454,14343
7943,8710,14343
7687,7942,15367
9735,7942,16391
9735,9222,16903
9735,9478,17159
9991,9734,18183
11015,9990,19719
11015,9990,21255
11271,10246,21767
12039,11526,23303
12807,12294,24327
13831,12550,26119
14087,12806,27399
14087,13574,30215
15367,14086,31495
15111,14342,-32505
15111,15110,-30201
15623,16390,-28153
15879,18694,-25849
16135,20230,-23033
17671,22534,-20729
19207,24582,-18425
19207,25862,-16889
19975,27654,-15609
20231,29446,-14585
20743,30982,-13817
20743,-32762,-12537
21255,-31482,-12281
21511,-30714,-12281
22535,-29434,-12025
22791,-28410,-13049
23047,-26362,-13817
21767,-25082,-14841
21511,-24826,-14585
22023,-25338,-18425
22279,-25338,-19961
22023,-25338,-21753
22279,-25850,-24569
21255,-26106,-26873
22023,-26106,-28409
22535,-26362,-31225
22535,-27642,32007
21511,-27898,30471
20743,-28410,28679
20743,-29690,26631
20487,-30970,24583
20231,-32250,23303
19207,-32762,22279
19463,32262,20999
19975,31750,19975
19207,30726,18439
18439,29446,18695
19207,29446,17671
18183,27910,16391
18183,27142,15623
17415,28166,16135
17415,27654,16135
16647,26374,15879
16647,25350,15623
16903,24838,15879
17159,25094,15879
16391,25094,15111
16647,24838,14087
16391,25094,14087
16903,24838,15623
15623,24838,15879
15623,24838,15623
15879,24326,15111
16647,24070,14343
17159,24326,14343
17159,25606,15367
17671,28166,16647
17671,28166,16647
18183,27654,16903
18183,28678,17159
17671,28934,17671
17671,29958,17415
17671,30214,17671
17927,30982,17927
19719,-31994,18951
20743,-29178,21255
21767,-26362,22791
21511,-25850,22791
22535,-25850,22535
22023,-23290,21255
22791,-23290,21255
23559,-22522,21511
23559,-22522,20999
22535,-24314,20487
22279,-24314,19719
20231,-26362,18439
20487,-28666,17159
19207,-30970,16135
16903,30470,14599
14599,26374,12807
13575,22790,12295
12039,20742,12295
11015,19974,12039
8711,18182,11271
9479,17158,10503
10759,18438,10247
11015,18694,10247
10503,18694,9991
8967,17414,10247
9735,17670,10247
10503,17414,10503
10759,18182,10759
8967,19462,10759
9223,19718,11015
10247,23302,17927
13831,25350,22279
16135,29446,25607
16391,-31226,28935
16647,-28666,29703
17159,-24570,28167
15111,-18938,23815
14855,-13818,16135
14599,-12282,6151
20231,-6906,7
25351,2054,-2296
29190,12550,-2296
-32506,29190,5384
-29689,-21242,12040
-29177,-20474,5896
-30201,31750,-9464
30982,15366,-17912
28422,1798,-20216
30470,-10746,-21497
32006,-18682,-21241
31750,-23290,-20217
30726,-32250,-19705
30982,24326,-19449
29702,18438,-19449
29446,15878,-20473
18950,-1786,-18938
16902,-7162,-14842
12806,-8954,-10234
8454,-8186,-6138
4358,-8186,-2042
5126,-4090,2310
4103,1542,6407
2311,3846,9479
263,3846,10503
775,3846,11783
2567,6662,13575
2823,7942,13575
775,7174,13575
519,6150,14087
775,6150,15879
2823,7174,16903
2567,8454,16903
519,7942,17159
775,7942,17671
1799,8198,18695
3591,8966,19975
4103,10502,20231
3847,10502,20999
3847,9734,22791
5127,9222,23047
4359,10246,24583
5127,11782,25863
4615,12806,28679
4615,12806,29959
4103,12550,31239
4615,12550,32263
4871,13062,-29945
5639,15110,-27897
5639,16134,-26105
6663,16646,-24057
7175,17926,-21753
7431,19718,-19193
6663,21766,-16377
6663,23558,-15353
7431,25094,-13817
8967,27654,-11769
9223,29702,-10233
9223,31494,-9977
9223,-32762,-9209
10759,-31482,-8697
11015,-30202,-8697
9479,-29690,-8697
9479,-27642,-8697
10247,-26362,-9465
13575,-26106,-10233
10247,-27642,-13049
10503,-26362,-14585
8967,-25850,-16377
9991,-25594,-17913
10503,-25338,-20985
10503,-25850,-23801
8455,-25850,-25593
8455,-27130,-26873
7943,-28410,-29689
8967,-29946,-32761
7687,-30970,32007
7431,-32506,30727
6151,32262,28679
6151,32006,26887
5895,30982,25351
6151,30982,25095
5895,30214,24327
5639,29446,22023
4359,28678,21511
3847,27910,21767
3847,26886,20999
4103,25606,20487
3335,25094,20231
1543,24326,20231
3335,24326,20231
2055,24070,20231
3335,24070,19719
2311,23814,19207
2055,22790,19463
1799,22534,19719
1543,22278,19207
1031,22278,19207
1287,22022,19463
775,22790,19719
775,23046,19719
775,22790,19463
1031,22790,19207
775,22534,19719
2567,24070,20231
2055,26374,21767
1543,26886,22023
1543,26886,21767
2311,27142,22023
2055,27142,22023
2311,28934,22791
3335,31238,23047
4103,31750,23559
5127,-31226,25095
6151,-29178,26119
9223,-27898,26375
7175,-27130,26631
6919,-26874,25863
7431,-25850,25351
8711,-25082,25607
8711,-26106,25095
8199,-27898,23815
7175,-28410,23559
7175,-28666,23559
6663,-29946,23047
6919,-32506,21511
3591,28166,18695
775,24070,16903
-1273,21509,16903
-2041,19461,16135
-3577,16901,15111
-2553,16133,14855
-3577,16389,15111
-3321,16389,14599
-4089,15365,14855
-5113,14085,14599
-4857,14085,13831
-4089,13829,13831
-3065,13829,13831
-3321,14341,13575
-761,15365,13831
-4089,15365,16647
-1273,18437,18951
1031,20742,23047
3079,24326,28935
3591,29190,-31993
4359,32518,-32249
4359,-29690,30983
3847,-24826,28423
2311,-19450,23815
4359,-15866,11527
7687,-12282,1287
13063,-4602,-1273
16134,3590,520
22279,19718,5896
25607,-28666,12552
27399,-23290,10504
25863,30214,-2808
23046,13830,-14584
20998,1542,-17912
20998,-11770,-18681
20486,-23034,-19449
20742,-28154,-18937
20742,30982,-17913
20486,21510,-17657
23302,19718,-17657
15878,5638,-17145
11270,-4602,-17402
8454,-10746,-14586
3590,-14586,-9210
6,-14842,-4602
-1530,-12795,-1786
-2042,-9723,2566
-2809,-5371,7942
-6393,-2043,11782
-4601,261,11783
-3065,773,13063
-3321,1029,15367
-5113,1029,15879
-5113,1029,15367
-4857,773,15111
-2809,517,15879
-2809,1541,17927
-2809,2821,17671
-3577,1541,16903
-3577,1541,18183
-2809,1797,19207
-761,2565,19975
-505,3845,20231
-1529,3845,21511
1799,3846,21767
263,4102,24583
519,4614,24839
519,4614,25863
2055,4614,27143
2567,5894,29703
3079,6406,30727
2823,6918,31751
3335,6662,-31481
3335,8198,-28409
5127,9478,-27129
5127,10502,-25593
5895,12038,-22777
7175,13830,-19705
7687,15878,-18937
7687,18438,-16633
9223,19462,-14585
9479,19462,-12793
10759,22278,-11513
10759,25094,-11513
10759,25862,-11513
11015,26630,-9977
12551,29702,-9465
12295,30470,-9977
12039,30214,-11001
15367,30982,-12537
12295,-32506,-12793
12295,-31226,-13817
12295,-31226,-15865
13063,-31738,-18425
13319,-31482,-20217
12807,-31482,-22521
12551,-31994,-24313
12295,-32506,-27385
12039,30214,-30201
14599,29958,-32249
14343,30470,31495
13319,29446,29447
11271,27654,27911
11783,27654,26631
11783,26886,25095
12807,26118,23303
12039,24582,22279
11271,22790,21255
11271,22790,20743
12295,22790,19719
11527,21510,18695
11527,20998,18695
11271,20742,18695
10503,19974,17927
13831,19974,15879
10759,17414,15879
11015,17414,15879
11271,17926,16135
12039,17926,15879
12295,17926,16647
12295,17670,16647
11271,17670,16135
11271,18182,15367
10759,18438,15623
12039,18438,16135
12551,17926,16647
12807,16646,16135
11783,15878,15367
12807,16134,15367
13063,17670,16135
13831,19718,16391
13319,19718,16903
13831,20742,16903
14087,22534,16903
14087,22278,17415
13575,22278,17671
15367,23302,17671
16391,24838,18439
16647,27910,19207
20743,29702,19463
19463,31494,22279
19719,32006,21255
19719,-32250,20999
19975,-31738,20487
21767,-31482,20743
22535,-31482,20487
20743,32262,19463
20487,32006,18951
20487,32006,18183
21767,30470,16903
22535,30214,17159
20743,26630,16135
16391,20742,13319
14343,17670,11783
12039,14854,10759
12039,11526,9991
11015,9734,9735
11527,9734,8967
11783,9990,8711
11527,9478,8455
12039,9478,8455
13319,9478,8199
12295,9222,8199
12551,9478,9223
16391,10246,8455
14343,9990,8455
14599,11270,8711
14599,14086,11015
15879,16902,16647
19207,18950,20999
21511,22022,24839
22023,26630,27911
23559,31750,28167
21767,-30458,26375
21767,-25850,19975
22535,-20474,11527
23303,-15866,1799
26887,-9722,-2553
-32250,-2810,-4857
-28154,9478,-4344
-22778,28166,3848
-22009,-27642,7432
-19961,-32762,-4088
-21754,16390,-19192
-25594,3334,-24312
-27642,-9722,-25081
-25850,-23546,-25593
-25850,-32506,-26105
-24570,28422,-25849
-20730,27654,-25337
-23034,13830,-23289
-25338,4870,-23289
-31994,-5114,-24570
27654,-11770,-22778
25862,-15866,-17402
23302,-17914,-12794
18950,-17402,-9722
15366,-14586,-5626
15622,-10490,-506
17926,-6650,2310
17927,-3834,4102
16135,-2554,5894
14343,-2042,7686
15879,-2298,8966
15879,-2554,8198
16135,-2554,7430
15111,-2042,8966
17415,-506,9990
17927,-506,10502
16903,-1018,10502
16647,-1018,12038
18951,-762,12806
18951,-762,13830
19463,1030,13831
23559,2310,13063
20487,2054,16391
22023,2822,17159
22279,3078,17415
20999,2566,18951
21767,2566,20487
22535,2566,21511
23815,3078,24071
24071,4358,26119
23815,5894,28167
25351,6662,29447
26631,6406,30983
28679,8710,-31737
28167,10502,-29689
27143,10502,-28409
27399,11014,-26105
29447,12806,-24057
30215,15110,-21753
31751,17414,-20985
31495,17926,-19961
31751,20230,-18681
31495,22534,-17145
32007,23302,-17401
31751,23814,-17401
-32505,26374,-16633
-28665,28934,-17657
-31481,29446,-17913
-31225,29446,-19193
-31225,29958,-20729
-32249,31494,-22521
-31737,32518,-23545
-30201,-32762,-25849
-30201,31494,-28921
-30713,31494,-30201
-30969,31238,-31993
-31225,29702,29447
-31481,28166,27143
-30457,27910,25607
-30457,27142,24071
-30713,25862,21767
-32505,25094,19975
-32505,24326,18439
32007,23046,17415
-31993,22790,16647
-31481,23558,15367
-31993,22534,13831
-32761,20230,13063
-32505,19718,12551
-32505,19462,11783
-32761,18438,11527
-29433,18182,10247
-31993,18182,9991
-31993,17926,9479
-32505,18182,10247
31751,17158,10247
31495,15878,9991
31495,15878,9735
-31737,15878,9479
-32761,14342,9479
32263,14854,9479
32263,16134,9223
32519,16390,9479
-32249,15366,9479
-32761,14342,9479
-32761,14854,9479
32263,15622,9479
-31481,16134,8711
-30713,16134,9991
-30457,17414,11015
-30969,18182,10759
-30713,18694,11015
-30713,19206,11015
-29689,19974,10247
-29945,21254,10503
-29945,22022,10759
-27385,22278,9479
-27385,25350,13063
-25337,29446,14343
-25337,31750,14855
-25849,30470,15623
-25593,30982,14855
-25593,31494,14599
-23289,-31994,14087
-23289,-31482,14087
-23801,31494,13319
-23033,30982,12039
-23289,30982,11527
-24825,28934,10247
-25849,27142,10503
-27641,23814,8967
-28921,19974,6663
-29945,17158,5127
-32249,13318,4871
-31993,11526,4359
-32249,10758,3335
-32249,9734,2567
-32761,9990,2567
-31737,10246,2823
-32249,9478,2567
-32505,8454,2311
-29945,8454,7
-32761,8198,1031
-31737,8710,1799
-31481,9990,3079
-31225,11782,4359
-30713,12294,5127
-30201,12550,8711
-25337,16902,14343
-22521,23814,21255
-21241,28422,24071
-20473,30982,23303
-21241,-30970,21255
-24057,-23802,18695
-24057,-17402,12039
-22009,-13562,2311
-19193,-5626,-2041
-16378,3590,-5880
-14586,15878,-5880
-8442,-31482,2312
-4857,-18426,6664
-4345,-22266,-3576
-6906,26118,-19448
-8186,9990,-27384
-8442,-4602,-28409
-8698,-18938,-28665
-5626,-21498,-31993
-6906,27654,-29177
-6650,18182,-29177
-6906,11526,-28153
-9466,4614,-27897
-12794,-4602,-28922
-17658,-11770,-27386
-21754,-15866,-23034
-27386,-16890,-17658
-27386,-16890,-14586
-27386,-16378,-13050
-29178,-13050,-8442
-30714,-7930,-3322
-31226,-5114,-1018
-30970,-5114,-506
-31482,-5882,774
-31737,-4858,2054
-31993,-4346,2054
-31225,-4346,1798
-31225,-3578,2310
-31225,-3066,3078
-30713,-2554,3846
-29177,-2554,3846
-29177,-3066,4614
-29177,-2810,5638
-25593,-2298,5126
-26617,-1018,6918
-26361,518,6919
-27641,774,8711
-28153,518,12039
-27385,774,11783
-27129,6,11271
-25849,-762,12038
-25593,-250,15878
-24825,1542,17415
-24057,1798,17671
-23033,2054,18439
-23033,2054,22791
-21753,3078,25607
-21753,5126,25863
-21497,7430,27399
-20729,9222,30983
-19961,9990,-31737
-18937,12806,-30457
-18937,14854,-29689
-18681,15622,-27641
-18681,17414,-25081
-17913,20742,-24825
-17401,22790,-24313
-16633,23814,-23545
-13049,24838,-23545
-16633,26630,-21753
-16121,27654,-23033
-16377,27910,-24569
-18169,28422,-24569
-16889,30726,-25081
-16889,32006,-27385
-16633,31750,-29689
-17401,31750,-30713
-17657,31494,-31993
-17657,32518,30471
-17657,-32506,27655
-17657,32006,25095
-17401,31238,24071
-18937,30214,21511
-18425,30214,18951
-18425,29446,17159
-19449,27654,16647
-19193,26374,14343
-19961,25350,12039
-20473,24070,11015
-21497,22534,11015
-20985,22278,9223
-21753,22278,8199
-21753,22022,7687
-18169,22534,6407
-20985,20998,6663
-21753,20742,5895
-22009,20230,5895
-24057,17926,6407
-22777,17670,5895
-23289,17670,5383
-23033,17158,5127
-22777,17670,5127
-21497,18694,4871
-21497,19206,4871
-21497,20230,5383
-23801,20230,5639
-23545,19718,5895
-21497,18950,5895
-21497,17926,5127
-23289,18182,5127
-23289,19206,5383
-23545,18950,6407
-22009,19718,6919
-20985,20742,7175
-21753,22022,7175
-22009,24326,7687
-22009,24326,7687
-21497,23814,7943
-18681,24326,6151
-19961,25350,7175
-18425,29446,8967
-19449,31238,11527
-19961,32006,12295
-19193,-31738,12039
-19449,-30458,12039
-16889,-29434,11271
-18169,-30202,11015
-18169,-30458,11015
-18169,-29690,11015
-17401,-29434,11015
-16889,-29690,10247
-16889,-30714,9223
-18937,-32250,8199
-19961,31238,7943
-19961,27910,6407
-22265,23814,4359
-24057,20230,3335
-23801,18438,2823
-25849,14854,1799
-26361,13574,1031
-26361,13574,519
-26617,13062,263
-26361,13318,1031
-23033,13830,7
-25081,14086,7
-25081,15110,-249
-25338,15366,519
-26361,13574,1287
-26105,13318,1287
-26105,14342,2055
-24313,17670,5383
-23545,20998,11783
-19961,25350,16647
-17657,30982,20743
-17145,-29946,22535
-18937,-26618,22535
-20473,-22522,18183
-20729,-16378,13319
-20729,-9978,5127
-20729,-4858,-2041
-16634,4358,-4344
-13306,13574,-7416
-9978,27654,-6392
-6906,-20730,1544
-4601,-13306,2568
-5113,-23034,-10744
-6650,26374,-22520
-8954,13318,-24824
-6138,9478,-26104
-6138,-16122,-26617
-5882,-24826,-26873
-6394,32262,-26105
-7162,21766,-25849
-6394,14598,-26361
-9722,7174,-26361
-12794,262,-27897
-17402,-6138,-26106
-18938,-10746,-20986
-21498,-10746,-15866
-24314,-10490,-13562
-28410,-10746,-10746
-28666,-6906,-6906
-28410,-2298,-3066
-27386,1286,-1529
-29178,1542,263
-29177,1030,1287
-28409,1798,2055
-29177,1798,1543
-29689,2054,1799
-30201,2054,1799
-29433,1542,2311
-28153,2310,3335
-28153,3334,4359
-25593,4870,3079
-28409,4102,5383
-28409,3846,5383
-27641,4870,6407
-27385,5126,7943
-26105,5382,9479
-26361,5382,9991
-26617,5126,10759
-26617,5894,12551
-25593,7430,12551
-25593,5894,14087
-24825,6150,15879
-24825,6918,17671
-22777,9478,19207
-22777,10758,22023
-22521,10758,22791
-23801,10246,25095
-23545,12550,27399
-22009,15622,29447
-20217,16646,31495
-20217,18182,-31481
-20473,20230,-29433
-20217,22534,-27897
-20217,24326,-26873
-20217,25606,-25081
-17913,26886,-25593
-18169,29958,-23801
-17913,32262,-23801
-18425,-32250,-23033
-18169,-30458,-23033
-17913,-28922,-22777
-18169,-27898,-23801
-18169,-27386,-25337
-18681,-27386,-26873
-18937,-26618,-28153
-18425,-26362,-30201
-17913,-26106,32519
-19449,-26106,31239
-20217,-27386,28423
-20729,-27898,26375
-20985,-28410,24839
-21753,-30458,22279
-20985,-30202,20743
-20985,-30202,19463
-19705,-29690,18439
-21497,-30202,17415
-22777,-31482,15623
-24057,30982,14343
-23801,30214,13575
-23801,30470,12039
-20473,31750,10503
-23289,30982,11015
-23545,28934,9735
-25081,27654,9223
-25849,27142,9735
-25081,27142,9735
-25849,26374,9479
-25081,26886,9735
-25081,27142,9223
-24825,26886,7943
-25593,26886,7687
-26617,26630,8455
-28665,25606,8711
-27897,25606,8455
-27385,26118,8455
-27641,26118,8455
-28409,25862,9479
-28665,25862,9223
-27385,27654,9991
-25849,30214,11271
-26105,31494,11783
-25849,32006,11783
-25593,-32506,11783
-25849,-31994,11783
-26873,-31482,12295
-25593,-31226,11271
-25337,-28410,13831
-23801,-24314,15879
-24057,-22522,16647
-25337,-23290,16391
-27129,-24570,15367
-27385,-24826,13831
-25849,-23290,14087
-23801,-21242,15111
-23801,-20986,14855
-25593,-24058,13319
-25593,-24826,12807
-25593,-26106,12039
-25337,-26106,11783
-27385,-29434,9991
-29945,31494,8199
-32249,28678,7687
-31993,26630,6663
-32761,23814,5895
-32761,22022,5383
31495,21510,5127
31751,21766,5383
31751,20998,4871
32263,20998,4615
30727,20742,4103
31751,21254,2567
29959,19718,3847
30215,20742,4103
30471,20998,4871
29959,22790,6663
29447,25606,9735
31495,29190,14599
-31225,31494,18183
-31737,-31226,21255
-31993,-27386,22791
31495,-25594,20743
28935,-25594,15367
27655,-23290,7943
27911,-18938,-1017
27910,-13306,-8441
32518,-2554,-8697
-29178,9222,-5880
-23546,22790,-4344
-21754,-26618,2312
-20985,-15610,5640
-21241,-16378,-1016
-22778,-29690,-13304
-24570,22534,-18424
-24058,9478,-20216
-24058,-5882,-19961
-22010,-8954,-21241
-24058,-25850,-18937
-25338,29958,-19193
-24826,23046,-19705
-24570,18182,-19449
-26874,10502,-19705
-31482,3334,-19193
29446,-2554,-16890
28166,-4346,-12026
26630,-4346,-8954
23814,-3578,-5882
23558,-250,-1018
23046,3846,2055
22023,4614,4103
20999,5382,6407
20999,6662,7431
20231,7430,7943
20999,8966,7687
20231,8710,7943
19719,7942,8199
18439,8198,9735
19207,8198,10247
19975,8454,9991
20231,9222,10247
19207,9478,11783
20231,10246,11783
19719,9990,13063
20487,9990,12551
19207,9734,14343
19719,10758,16135
19719,11782,17415
19463,11526,17415
21255,11014,18439
21511,11270,20487
21255,11526,21767
20999,12294,22791
20999,12806,24839
20999,12806,27399
21767,13318,29191
21511,15110,30727
21767,16646,32519
22023,18182,-30201
22279,18182,-29177
22535,19206,-27385
23047,21766,-25849
22535,25094,-23033
23047,25862,-21753
23047,27142,-21241
23815,30726,-20217
22279,32518,-19449
23559,-32506,-19449
23303,-31738,-18937
23303,-29690,-19449
23303,-27898,-19449
24071,-27386,-19193
22535,-27130,-20473
22791,-25338,-22777
22535,-24058,-24313
21767,-24314,-24825
22535,-24826,-26617
22023,-24826,-29433
21255,-24826,-31225
20743,-25850,-32249
20487,-26618,32007
19207,-27642,29191
19207,-27642,26887
17927,-27898,26631
19463,-27898,26375
18695,-29434,24071
18183,-30458,22023
17671,-30458,21767
17671,-30458,21767
17415,-30970,21511
17415,-31482,19975
14343,31750,18951
14343,31750,18439
14343,32006,18183
14343,30470,17159
13831,30470,17159
12807,30470,17159
12039,29958,17415
12807,29702,17671
12551,29958,17159
12295,29702,16647
11527,29702,16903
10759,29958,16903
11015,28422,16647
11271,27654,17415
10759,27654,17671
9735,27910,17159
9991,27910,17159
9735,29702,18951
10247,31494,19975
9735,32006,20743
10503,-32762,19975
10247,-32762,19719
10503,-30714,21255
9223,-29178,22535
11015,-29434,22023
11271,-27898,22279
12551,-25850,21767
12551,-20730,26631
12551,-20730,26887
11527,-20730,25607
11783,-20474,24583
11783,-18938,24583
12807,-17914,25095
11783,-18938,25351
12039,-20986,24071
10759,-22266,23559
9479,-23034,22791
9479,-24058,22023
8711,-25338,21511
7687,-28922,19719
4871,-32506,17927
1799,28934,17671
-249,24837,17159
7,23046,15111
-1017,22277,14343
-1273,22533,14599
-1529,22277,15111
263,23302,15111
-761,23301,14599
-761,22789,14087
-2041,22021,14343
-1017,21765,13575
-1529,21509,14855
-1273,22533,15367
-2297,24325,17671
-1785,26373,20487
775,29702,24839
2311,-32250,29447
2055,-29690,-31737
3335,-26106,-31737
1543,-23034,31751
-761,-18939,27399
-1529,-14587,20231
-1529,-11259,9735
-761,-5115,2567
4103,5638,1032
8711,15366,264
14343,30726,4616
18695,-17658,11016
18695,-12026,9992
17927,-23802,-3064
15366,25350,-13304
14598,13830,-15608
14854,1286,-15608
15366,-10746,-15353
15110,-19706,-14585
15622,-22010,-14841
13830,26886,-14073
14086,20230,-13305
11014,12550,-13049
7686,4102,-13049
2054,-1274,-9722
-1530,-4347,-4602
-5370,-5371,-506
-6650,-5371,1286
-7673,-2811,5382
-8953,2053,10247
-9977,5381,12551
-9977,6661,14087
-11001,7429,16391
-11769,9221,17671
-11001,9989,18183
-12281,9733,18183
-11769,9477,18183
-12281,9221,19719
-12537,9477,20231
-13049,8965,20231
-13049,8197,19975
-12793,8197,20743
-10233,10757,22279
-9977,12037,23559
-9977,12037,23559
-10745,11781,24839
-9209,11781,25863
-10233,12293,27399
-9977,12549,28423
-9721,13061,29191
-8953,13317,30471
-8697,13317,32519
-7161,13317,-30713
-7161,13317,-29689
-6905,14853,-28409
-7161,16389,-25337
-7161,18181,-22521
-6905,19973,-20985
-4857,21253,-19193
-5113,22021,-16633
-6137,22533,-14329
-5369,25093,-12793
-4089,27653,-11257
-2553,30469,-9209
-2553,31493,-7929
-3065,-32763,-6393
-3833,-30459,-6393
-2297,-28667,-6137
-2297,-27387,-4345
-2553,-26363,-4345
-2809,-24827,-5625
-2553,-24315,-7417
-2809,-23803,-7929
-1273,-22523,-8441
-1529,-22011,-11257
-2297,-22011,-14329
-3321,-22779,-15609
-2041,-23291,-17401
-2041,-24827,-20473
-2553,-24571,-23545
-4857,-25339,-25081
-6137,-26619,-26361
-4601,-28155,-28921
-3577,-27899,-30713
-3577,-26619,-31737
-4345,-27643,-32505
-4089,-28923,30727
-4345,-31227,28935
-5881,-31739,28167
-5881,-31227,28167
-6137,-31995,27399
-6905,31749,26119
-6649,30213,24583
-7161,30213,24327
-7161,30981,24327
-6649,30981,24071
-6649,30469,24327
-7161,28677,23303
-6905,28421,22791
-8441,28421,23303
-8441,28165,23047
-8953,27653,23303
-7929,27397,22535
-7929,27397,22279
-7673,27397,23047
-7929,27909,24071
-7673,28165,24071
-7929,27909,22791
-7673,27909,22791
-8441,27141,24327
-8441,26885,25351
-8185,28165,25095
-7673,29189,24839
-6905,30981,24839
-7673,30981,25095
-7417,31749,25095
-6649,-32763,25095
-4089,-32763,25351
-3833,-30459,27143
-3833,-28923,27911
-1785,-23803,30215
-761,-23035,29959
-1785,-22779,30215
-1273,-22523,30215
-1529,-21243,29959
263,-20474,28935
775,-19194,29191
775,-20986,28423
-505,-22779,28167
-505,-23803,25863
-1017,-25851,24839
-1785,-27899,25351
-4601,-30715,24327
-6649,30725,22023
-9721,27141,19975
-9721,24325,19719
-9465,22533,19207
-9721,20229,17927
-10489,19461,17159
-11001,19461,17415
-11257,20229,18183
-11257,20741,18695
-9721,20997,17927
-9465,21253,17671
-9977,22021,17927
-10233,21765,18439
-9209,21253,18183
-8953,20997,18951
-8185,22277,21255
-8185,25861,25863
-4857,30213,30727
-3577,32261,-30457
-1529,-29435,-29689
-1017,-24571,-29433
-2809,-19195,-31481
-4601,-15355,28679
-3065,-11771,18695
-1785,-8187,8455
2311,774,4616
5383,9478,3080
9479,19718,3336
14343,-27386,11016
16391,-13562,15368
16135,-20474,4104
14087,27398,-9976
11782,13574,-14584
11270,1542,-14840
13318,-10746,-15097
14854,-19706,-14585
14598,-22010,-14073
14342,31238,-11769
14086,23046,-11769
10758,12806,-12793
6406,2566,-12793
1798,-2810,-10746
-250,-5883,-6906
-5114,-8187,-2042
-7418,-7931,1286
-7673,-3067,5382
-7417,2053,10247
-10233,3333,13575
-11001,4357,15367
-11001,7173,16903
-9465,9733,18183
-10233,9477,18695
-9977,8197,18695
-9721,7429,18695
-9977,7941,19975
-9721,9477,20999
-9721,9477,21255
-10745,8453,21255
-10233,8453,21255
-8697,9733,22023
-7417,11013,23815
-8697,11013,24071
-8185,10245,24327
-6393,11269,25863
-6393,11525,27655
-6649,11269,28167
-8953,10757,28423
-6905,11781,29959
-3833,13317,32519
-1017,15621,-31225
-2041,16389,-29689
-2809,14853,-28409
-3065,15109,-25337
-505,16645,-23545
-761,19461,-22009
-761,19717,-20473
-761,19717,-17401
263,21254,-14841
1031,24838,-13817
2055,27654,-12281
2311,28934,-9977
2823,30470,-7417
2823,32518,-6649
2823,-31226,-6393
3847,-30458,-6137
4871,-29690,-6137
3847,-28410,-6137
5127,-25338,-6393
5383,-25594,-6649
5639,-24314,-7417
5895,-22522,-8697
4615,-21498,-11257
4615,-21754,-12793
4871,-22266,-13817
5639,-22522,-17145
4103,-23290,-19961
4615,-23546,-22009
4615,-25594,-23289
4871,-26874,-25849
4615,-27130,-29433
4871,-27386,-31481
4103,-27130,-31737
4615,-27898,-32761
4615,-28922,29959
5127,-29946,28679
3335,-31994,27655
2567,-32506,26631
3079,-32762,25607
3079,31750,24327
3079,31494,23559
3079,30470,23303
775,30214,23303
1543,29702,21767
1543,28934,22023
2055,28166,22023
3335,28166,21255
2055,27654,20487
1287,26374,20231
263,25094,20743
2823,26886,20743
2823,27910,21767
2311,26886,21511
2055,26118,21255
2823,25862,20743
2567,25606,20487
4359,26630,20231
3847,27398,21511
4103,27910,22279
4103,29702,22535
4103,29958,22535
4871,31238,22791
6151,32006,23047
5127,-32762,22791
5639,-31482,23559
6663,-31482,24327
7943,-29434,25351
6151,-28666,26375
9223,-23802,27143
8967,-23802,26631
8967,-24314,26119
10503,-22522,25607
10759,-20986,25607
11527,-19450,26375
11783,-19962,26119
12551,-21242,25095
11527,-23034,24071
10503,-24570,23815
10503,-25594,23815
10247,-29434,20999
6919,30470,18183
4871,27654,17415
2567,24838,16903
2055,22278,16391
1287,19718,14599
2311,19462,14087
2055,20486,14343
2567,20742,14343
2567,20486,14599
2567,20230,14087
2311,19462,13831
3079,19974,13575
1031,19718,14343
2311,20486,15111
2823,21254,16135
4103,23302,17159
6151,26374,20487
7943,27910,24839
10503,32262,29447
10503,-29690,-32249
12551,-25338,-32505
11015,-20986,30983
8711,-16634,27399
8967,-12282,20231
10503,-9978,8711
12039,-4090,2311
17159,4358,264
20743,14854,776
26887,32518,7176
30215,-18170,12552
30215,-18170,5640
28935,31750,-8440
28166,17670,-17144
26886,5638,-19448
26886,-8442,-19193
26630,-19450,-19449
28422,-24314,-18169
26886,-26362,-15353
28166,24838,-16889
26886,17414,-16889
22790,7686,-18425
19462,262,-17145
14598,-4858,-12538
10246,-6650,-6906
7430,-6138,-3834
7174,-4602,-1274
5382,-506,4358
4359,2822,8199
4359,4614,9735
4359,6150,11015
3335,6918,13063
3591,7942,14599
3335,8710,14599
4871,8710,14343
4615,8710,15367
4359,8710,16135
3847,8454,16391
5127,8966,16391
5127,8966,16647
5639,9734,18183
5383,9734,19463
5895,8966,19719
3847,8454,20487
7943,10502,20743
6919,11270,22791
6919,11014,23303
8199,12294,24071
8711,11782,25095
9479,11782,27655
10247,13574,29191
11015,14342,28935
11271,15110,31751
11783,16134,-30457
12295,17158,-28409
13831,18182,-28153
13575,19718,-25337
14087,20998,-23033
13831,21254,-21241
14855,22278,-19449
15623,26118,-17401
16903,28678,-14585
17159,29446,-13049
18695,30726,-13049
17415,32518,-12281
17671,-31226,-11513
18183,-29946,-9977
21255,-26874,-9721
18695,-25594,-9465
18439,-24314,-12025
18439,-24314,-11513
19207,-24570,-12793
19975,-24058,-15353
19975,-22778,-17145
19719,-22010,-18169
20231,-22266,-20217
21255,-23034,-24313
20743,-24570,-26617
19207,-25338,-27641
18439,-25594,-29945
19719,-25594,32263
19719,-26362,30215
19719,-27386,28935
18183,-28666,27911
18951,-29178,25607
18951,-29434,23559
18695,-30202,23047
17415,-31738,22535
17415,32262,20999
16647,30726,19207
17671,30726,18695
17415,30214,18695
17415,30214,18439
14343,29702,19207
16903,29702,17927
16903,29190,17927
16903,28166,17415
15623,26630,16903
14855,25862,16647
15879,26374,16647
15623,26118,16391
15623,26374,15879
15367,27142,16647
15623,27142,16647
17159,26886,16647
17159,26886,16903
16391,27654,16647
17927,29190,16903
17671,29446,18183
17671,30470,18183
16647,30982,18439
18183,31494,18183
18439,31750,18695
19207,-32506,18695
19207,-30970,19719
19975,-30458,19719
19975,-30458,20231
20999,-26874,22023
18183,-26106,24839
23047,-23290,23815
22023,-23546,23559
22023,-22266,23303
22535,-21498,22791
24839,-20474,23047
24583,-20474,22535
23303,-22522,21511
23303,-22778,20999
23047,-23802,19719
23047,-24826,19207
22279,-26874,18183
18439,-31226,15623
16647,30470,14343
16391,27142,13319
15111,23814,12551
14087,23302,11527
12551,21766,10759
14599,20998,11015
14599,20998,11271
13063,20742,11271
10503,20230,11015
11783,20486,10247
12295,19718,9991
14087,19206,10247
9991,18950,12551
13831,21254,12039
13319,22278,13319
15111,25350,16135
16135,28678,20743
18439,32006,25607
19975,-29690,29447
22791,-26362,29191
23047,-21754,28423
18439,-18426,26119
18183,-14842,18695
18951,-10490,8455
21767,-3578,1031
26119,4870,-1784
31238,13062,-3320
-29178,28934,2824
-24313,-18170,10760
-24825,-14586,8712
-26105,-28410,-6648
-28666,19974,-18168
-29178,9734,-20728
-29178,-2810,-20985
-28922,-14842,-21241
-29434,-22266,-21241
-28666,-28922,-20729
-32506,-32506,-17401
-29434,20230,-19193
32262,10502,-20217
29190,3078,-20985
25094,-1018,-17658
20486,-5370,-12026
15366,-6906,-7418
14342,-4602,-4346
14086,-506,-506
12038,3590,4103
10759,6662,8199
10759,8198,8711
9735,8454,9479
9479,8966,11783
9991,8966,12807
10247,8710,12039
11015,8710,11783
11015,9478,13831
11015,10246,15367
9991,9990,15367
11271,9734,14343
11271,9478,14599
11783,11014,16903
11527,11526,18695
12551,11782,18695
9223,11782,20231
11783,12038,20231
11527,12038,22535
13319,12806,22279
13575,13830,22535
13831,14342,24583
13831,14342,27911
14855,14598,28679
15367,14854,29447
16135,16134,31751
16647,18438,-30457
17671,18694,-28409
17927,19462,-28409
18695,21766,-26361
19207,23814,-22521
19975,26886,-19449
20487,28166,-18937
19719,28166,-17657
20487,29190,-15097
19719,29958,-13305
20487,32518,-13305
21255,-29690,-12281
21255,-28410,-11513
21255,-27386,-10233
22535,-25850,-11513
18695,-26106,-11001
22023,-23802,-12281
21767,-22522,-12281
22023,-22010,-14841
22279,-20986,-18425
22279,-20474,-19961
20487,-21498,-20217
20999,-21754,-22521
21511,-21754,-26617
22791,-22010,-29177
21767,-22010,-29945
21255,-23290,-31993
20999,-24826,30727
20743,-25850,28679
20743,-26106,27399
20231,-27386,26631
20231,-28410,24583
19975,-28922,22279
19975,-29178,22023
18695,-30202,22023
18183,-31994,20487
17927,-32506,19207
18183,-31994,18951
17159,-31994,18951
17671,-32506,17927
12807,30726,18695
16647,30726,16903
16647,31750,17927
16903,31750,16903
16135,30214,15367
15879,29446,15367
15367,28422,16903
16391,28934,16647
16391,29446,16903
17415,29446,16391
16391,29446,16391
16391,30214,16903
16391,30470,16647
16135,29958,16391
16391,30214,16647
17159,31750,17415
18183,-31994,18695
18439,-31738,19463
18695,-30714,19463
17415,-29946,19207
17159,-29434,19463
17927,-28666,19975
18439,-28410,20743
18439,-27386,21511
21511,-22522,22535
18183,-22010,25351
22535,-19962,24583
20487,-19450,24327
21767,-18682,23047
22023,-18170,23047
23815,-17658,23303
22535,-18426,23047
22535,-18938,22023
23047,-18682,20999
23303,-19450,20487
20231,-22522,19719
18951,-25082,17927
17159,-29178,16391
14855,32006,15879
13319,27654,14087
12551,25862,13063
12551,25094,12551
11271,23558,12551
11271,23302,11783
11271,23558,12039
11271,23814,12039
10759,23558,11783
10759,23558,11783
9479,23302,11527
11015,23302,11015
7175,22534,13063
11783,24838,13063
11271,25862,15367
12039,29446,17415
13831,31750,22535
16903,-30714,27143
18951,-26362,30727
20231,-21754,30983
18695,-17146,27911
17415,-13562,24583
15879,-10234,19207
16135,-8698,7431
18183,-2298,-505
24582,7174,-1784
30214,16902,-1016
-30970,-30970,6408
-28153,-13306,13576
-27897,-13050,6408
-29177,-31226,-9464
-31482,19462,-17656
32518,9734,-19704
32262,-3066,-21753
-32250,-14586,-21497
-31994,-21242,-19449
-30970,-28154,-18681
29446,-31738,-15865
30726,21254,-18937
27142,11526,-18937
24326,3334,-19193
18182,-1786,-15866
14854,-3322,-9722
11526,-4090,-4346
10502,-2810,-2042
8966,1542,1799
8455,6150,6407
7175,8966,10247
6919,9990,10759
5383,9990,11015
5127,11526,13575
5127,11526,15111
6919,11526,13831
7431,12806,13575
6663,13062,15367
4615,13318,16391
4615,13574,16391
5383,12806,17159
5127,13062,17927
5127,12806,18951
5639,13062,20231
7687,14598,20487
4103,14598,22535
8711,15366,22535
8455,15622,23815
8455,15366,24327
8711,15366,25607
11527,17158,27143
11015,17670,29703
11015,17414,30471
11015,18950,32263
12551,20998,-30713
11783,21254,-27897
11783,21510,-26105
11783,22790,-24313
13575,25606,-22521
14087,27142,-19449
14087,27398,-17401
13831,29958,-15865
14599,32262,-14073
15111,-31738,-11769
15879,-30202,-10745
16135,-27642,-9721
16135,-26106,-8697
16135,-24570,-8185
15623,-24314,-8441
16135,-23546,-8953
11527,-23546,-7929
17927,-19706,-10745
16903,-19450,-10745
16391,-19450,-12281
15879,-17914,-14585
16135,-17658,-17145
15367,-18170,-17913
16903,-18426,-20473
17159,-18682,-24569
15879,-19450,-27129
14855,-20986,-27641
16647,-21498,-28921
16135,-21754,-31481
15367,-21754,30983
13319,-23546,29191
13831,-25338,28679
14087,-25338,26631
15111,-25338,24583
12551,-26874,23815
12551,-28666,23559
12551,-29178,22279
12551,-29434,20743
12551,-29690,20743
10759,-30970,21767
10759,-32250,20999
7175,32262,21255
11271,-32250,19463
9735,32518,19719
9735,32518,19719
9991,-32762,19463
10247,32262,19207
8455,32262,19463
6663,32006,19719
6663,32006,19975
10247,31750,19463
9223,31494,18951
8199,31238,18951
8199,31238,19719
9735,31238,19975
9479,31494,19463
9735,-32250,19719
9991,-30458,20487
9479,-30714,21511
9991,-29178,22791
10759,-26874,22791
8967,-26874,22535
9479,-26618,22535
9991,-26362,22279
10503,-25594,23559
12039,-21754,25095
8455,-22266,27399
13319,-18682,26631
12039,-18682,26375
12807,-17146,26375
13319,-16122,26119
14599,-16378,26375
14343,-17146,25351
14087,-18938,24327
13575,-19194,24071
13575,-19706,23047
12039,-21242,22535
11527,-22266,21767
8199,-26362,19975
5895,-30714,18439
4359,31238,17671
4103,29958,16647
1543,28422,16903
1543,26630,16135
1543,25094,15111
2823,25094,14599
1799,24838,15111
775,24838,15879
263,24582,15623
-249,24325,15879
-505,24581,15623
-5369,23813,16647
-249,25861,15111
-249,26629,18183
263,28934,20743
2567,31238,23303
4871,-30970,28167
4615,-27130,-31481
8199,-22778,-30201
7943,-18170,-32761
4871,-14586,29959
2311,-10234,26119
4359,-6394,16135
7431,-2042,5383
9991,5382,1800
12039,13062,1800
20487,28422,7432
24839,-17658,16392
24839,-11002,15624
21511,-21754,1288
20999,27398,-11512
20486,15622,-15352
18950,2054,-16376
17926,-9978,-16633
18182,-16890,-16121
19718,-23802,-15097
16902,-27386,-12025
18182,26630,-13817
14086,17414,-14073
10246,7942,-14073
6150,2310,-12537
2566,-1274,-7930
-3066,-1787,-1530
-4858,-1531,1798
-4857,1797,5127
-5625,6661,9735
-9721,9477,14087
-11001,11525,16135
-11001,11781,16647
-11257,11781,18183
-11513,12549,20487
-10489,13317,19463
-12025,12037,18951
-11001,13317,19719
-11513,14597,22279
-11769,14597,22535
-12793,13829,22279
-12281,14085,22535
-12537,14341,24071
-12025,14597,25095
-10745,15621,25607
-14585,15365,27143
-11769,16389,27655
-11769,16389,29959
-9465,17925,31495
-9465,18181,31239
-10745,17669,32519
-11769,17925,-29945
-9977,19973,-27385
-9465,19717,-27641
-8953,19461,-26361
-11001,19973,-23545
-10489,21765,-20985
-9209,23813,-17913
-7161,24325,-16633
-7673,24837,-14585
-7673,27397,-12025
-8441,30469,-8697
-6649,32261,-7673
-7161,-32251,-5881
-7417,-30459,-4089
-7929,-29179,-3833
-6137,-26619,-3833
-6137,-25339,-1785
-6137,-24571,-1017
-5881,-22523,-1273
-11001,-22779,-249
-6905,-19707,-3065
-6137,-19451,-3065
-5881,-19707,-4345
-5881,-18939,-6393
-6137,-18683,-9209
-6905,-18427,-10233
-6905,-18427,-12025
-7417,-19195,-14585
-7673,-19707,-17145
-9465,-20219,-18937
-10233,-21755,-21753
-9977,-23035,-23545
-9977,-23291,-25337
-13049,-24827,-26617
-11513,-25339,-28409
-12025,-26363,-30713
-12025,-26363,-32249
-14329,-27387,-32505
-14585,-28411,-32761
-14585,-29435,31239
-14841,-30971,29703
-16889,-31483,29959
-15609,-31739,29703
-15609,-31739,28423
-19705,31749,28679
-17145,31493,27143
-17657,31237,28423
-17913,31237,28167
-18425,31237,27143
-19449,30981,27143
-19961,30213,27655
-19961,29189,27911
-19449,30213,28167
-19705,29957,27911
-20473,30213,27655
-21241,30213,28167
-21497,28933,28935
-19705,28933,28935
-21241,29189,28935
-20985,30469,28935
-21241,31749,30727
-21497,31749,30727
-21497,32261,30471
-20473,-31227,30471
-21753,-30971,31239
-22009,-30971,31751
-22777,-30971,-32761
-20729,-29691,-32761
-18425,-25851,-31993
-20985,-25595,-29433
-17913,-21499,-29177
-18937,-20731,-28921
-18937,-19707,-29433
-17401,-19451,-30969
-17145,-20475,-30969
-17657,-20475,-30713
-17913,-20475,-30969
-18681,-21243,-31481
-19449,-22267,-32505
-20985,-25339,32007
-21241,-26619,32007
-23033,-29691,29959
-26361,31749,27655
-29689,26629,26887
-28921,23813,26375
-29689,22789,25607
-29689,22789,25095
-31737,20229,25095
-31993,19973,24839
-32761,20741,25095
-31481,20741,24583
-31993,20485,24583
-31993,20229,25351
-32505,19461,25095
29447,18181,26119
-32761,20997,24839
-31993,20997,26375
-30457,23301,28935
-28665,26629,-32249
-27641,28421,-26873
-26105,-31995,-22521
-24313,-26875,-20985
-23801,-23035,-22009
-26617,-19963,-24825
-29177,-16379,-30201
-27641,-12539,26119
-25593,-8187,17159
-22009,-763,12807
-18681,6405,11784
-11257,21765,15624
-6393,-23803,25352
-6649,-17147,25352
-8441,-27131,13064
-8697,21765,-504
-11514,8709,-5112
-11770,-2811,-6393
-13562,-15355,-7161
-12282,-23035,-7161
-11002,-28155,-5881
-13050,-31739,-3065
-12538,18437,-4857
-14586,9477,-5113
-19194,1285,-5369
-23290,-4091,-3322
-28666,-8699,1798
32007,-9979,6662
29447,-8187,9734
29447,-5115,12806
29191,-2555,17670
27143,261,21511
26631,3077,23047
25607,3845,24583
25351,3845,25863
25607,4869,28423
26375,4613,27655
26375,5893,27143
26631,6405,28167
24839,5381,29447
26119,5381,29959
26375,5893,29959
27655,5893,29959
26375,6149,31495
26887,6405,-32761
26631,6405,-32505
25607,6149,-31481
28935,8453,-29689
28935,7941,-28921
27911,7941,-28153
29191,8453,-27641
30471,9221,-25337
32007,9989,-23289
31751,9989,-22265
31495,11525,-20473
32007,11525,-18681
32263,11781,-15865
-32505,13317,-14329
-32249,13573,-12793
-32505,14597,-10489
-31993,16133,-7161
-30201,17669,-5881
-29177,19973,-4089
-28409,22277,-2041
-30201,23301,519
-28408,25605,1799
-28408,27141,2567
-27896,29189,2823
-28408,30469,4615
-27896,31237,5127
-27640,-32507,4615
-29176,-32507,5127
-26360,-30459,3847
-26360,-29947,2823
-26360,-29179,1031
-25080,-28667,-1529
-26105,-28667,-3065
-26361,-28923,-4089
-26105,-29179,-6393
-24825,-28667,-9721
-25081,-30203,-12025
-26617,-31995,-12793
-26873,-32507,-15865
-26617,-32763,-18681
-26361,32261,-20473
-27385,30725,-21497
-27385,29189,-24057
-27897,27909,-26105
-26873,27909,-27641
-27897,27909,-27897
-29177,26629,-28153
-29945,25605,-29689
-28409,25349,-31225
-29689,23557,-31993
-29689,22789,-31993
-29689,22277,-32505
-31225,21765,-32761
-29689,22277,32263
-28921,21509,32007
-29433,21509,31495
-29177,21253,30983
-30201,20485,31239
-29689,20485,31239
-29433,19717,32007
-29689,18693,31751
-29433,18693,31495
-29177,18693,31495
-29177,18693,31751
-30457,17669,31495
-31993,16133,30727
-31225,16133,30471
-28665,18693,30727
-26873,20741,31239
-26873,21253,32519
-29177,21509,-32761
-27897,22277,32519
-26873,23813,-32505
-26617,24325,-32249
-28153,24325,-31737
-27129,24325,-31737
-24569,25605,-31993
-24569,26629,-30969
-22521,32005,-27897
-23289,32517,-27641
-23289,-32251,-28665
-20985,-30459,-29689
-20985,-29179,-29689
-19705,-29435,-29177
-19705,-30203,-29689
-19961,-31227,-30457
-21753,-31995,-31481
-22265,30981,-31737
-21753,30213,-31993
-21241,28933,-32505
-23801,24069,30471
-26617,19205,28167
-28665,16645,27143
-29945,14085,26375
-29433,12805,25863
-29945,11269,25095
-30457,10501,24327
-30969,10501,25095
-30713,10501,24583
-30969,9989,24583
-29433,9989,24583
-29689,10501,24583
-30201,10245,24839
-30457,9989,25095
-30457,10245,25351
-30713,11269,26119
-27897,13317,28679
-26361,16133,-31225
-24057,19205,-27129
-22521,23045,-24057
-21241,26629,-23289
-21241,31237,-23801
-22009,-29947,-25849
-22265,-25595,-31737
-20985,-22267,23047
-19705,-18427,14599
-14585,-10491,11783
-7673,-1531,9991
-2297,13829,13832
-249,31749,22792
1287,-26106,23560
1287,27398,8200
-1529,9989,-5368
-3066,-1531,-7929
-4090,-14587,-8185
-2810,-26619,-10233
-2298,-32763,-9977
-2554,30725,-8441
-2810,17157,-6905
-2810,10501,-7161
-5882,261,-7929
-9722,-8443,-8698
-16122,-14331,-4858
-19706,-18939,-506
-22010,-18939,4614
-23033,-17403,8198
-25849,-15867,11782
-26617,-11003,15878
-27897,-8187,19206
-27129,-5883,20742
-27641,-5115,22534
-28153,-5115,24326
-28153,-4859,24070
-26873,-4347,22790
-26361,-3579,23814
-26361,-3579,26374
-26617,-3067,27398
-26873,-3323,26630
-25593,-3579,26374
-25337,-2299,27654
-24825,-2299,28934
-25081,-2043,29446
-25081,-1787,29190
-24313,-1787,29446
-23545,-1787,31494
-23545,-763,-31482
-21241,517,-31481
-21753,517,-30969
-21241,773,-29945
-20729,1029,-27641
-19961,1541,-26105
-19705,1541,-25081
-18425,2821,-22265
-18169,4101,-19193
-16889,5381,-18169
-16121,7173,-16121
-16121,7685,-14841
-14841,8709,-12025
-13305,11781,-9721
-14329,12293,-8441
-14073,13573,-6137
-13561,15877,-4089
-12281,17669,-2809
-10745,19205,-2297
-10489,20997,-1273
-9721,22789,-249
-10233,24069,-249
-9977,24069,-505
-9721,26373,-505
-8697,27653,-505
-8441,29445,-2041
-7929,29957,-3577
-7929,30213,-5113
-7161,30725,-7417
-8697,30213,-10745
-8441,29957,-13049
-8185,29445,-14585
-8441,29189,-16377
-8185,28421,-18425
-7673,27653,-21497
-8185,26885,-23545
-7929,25349,-25081
-7673,24837,-27385
-7161,24325,-29689
-8441,21765,-31737
-8697,21253,-32761
-8953,21253,32519
-9977,19717,30983
-9465,18437,29959
-9209,17669,29959
-9209,17413,28935
-9209,16645,27911
-8697,15877,27399
-8953,15877,27143
-8441,16389,27143
-8953,16389,26631
-10489,14853,26119
-11001,13829,25351
-9209,13829,25095
-8697,14597,25863
-7673,15365,25863
-9721,14341,25863
-9209,12805,25607
-9209,12805,25863
-8185,13573,25351
-9465,13061,25607
-9721,12037,25863
-8185,11781,25095
-7161,12805,25095
-7161,14853,26375
-6905,16901,26887
-7161,16901,26887
-5625,16901,27143
-4857,18949,27143
-5113,19461,27399
-5113,19461,27655
-4601,19205,28423
-2809,19461,28423
-1273,26117,30215
-1273,28165,30983
-1785,28677,31495
-505,28421,31751
7,29958,31751
1543,30470,29703
3079,30214,29447
2823,30470,29959
775,28934,29703
2823,29190,28679
1031,27398,27911
775,26118,26887
7,23558,25607
-1273,18693,23559
-3577,15621,21767
-4345,12549,20487
-7161,9477,19719
-7161,8197,19463
-7929,7429,19463
-8953,6149,18695
-8953,6405,18951
-7673,6405,18695
-6905,5637,18439
-6393,5637,18439
-5113,6405,18183
-6649,6149,17671
-6905,6405,17927
-6905,6917,18183
-5369,8197,19719
-5113,11013,24583
-505,14597,28167
1031,16646,31495
2055,19974,-29945
3591,23814,-27897
3847,28678,-30713
775,32518,30471
1031,-28410,24327
1287,-25850,14599
5127,-19194,6151
11015,-10490,3591
16903,-2042,2567
20487,13574,10760
25351,31750,19208
26119,-30202,14344
24583,21766,-2040
21766,5382,-12536
20742,-6138,-13561
20742,-19962,-15097
20742,-31994,-16633
22534,31238,-17657
21766,22534,-14585
21254,13318,-15097
20486,5894,-15097
16902,-2810,-15098
11782,-11770,-13562
9734,-17402,-11258
4870,-20986,-6650
774,-21498,-1786
-1786,-20219,2310
-505,-14587,5894
-1529,-11003,8966
-2809,-8955,12550
-4345,-7163,15366
-4089,-6651,15878
-3065,-4859,16390
-1017,-4347,16646
-3833,-4603,17414
-3577,-4347,17414
-3065,-4347,18438
-2041,-4091,19206
-1529,-3835,19462
-1529,-3323,20486
-1017,-2811,20998
7,-2554,22278
2567,-1786,21766
1287,-1786,23558
775,-1786,24582
263,-1786,26374
7,-1530,27142
1031,-762,27910
4103,262,28679
4103,518,30727
4103,1542,32007
3335,2054,-31737
4615,2310,-30457
4871,2566,-28153
6663,3334,-26361
6919,5638,-24057
8455,6406,-23289
8967,7686,-21241
9735,9734,-17913
9735,11526,-14841
10247,13318,-14073
9991,13830,-12793
12039,16646,-10489
12039,18950,-8697
12551,19462,-8185
13831,21254,-7161
14087,22790,-6137
15623,23558,-6393
14343,26374,-6393
15367,28934,-6649
14855,29446,-6905
14087,30214,-8185
14343,31494,-11001
15623,31494,-13049
15367,31494,-14073
15367,30982,-15865
14087,30214,-18681
15367,28934,-22521
15367,28422,-24057
15879,28678,-24569
14599,27910,-27385
15623,27910,-31481
15879,26886,-32761
16391,25862,31751
15623,24326,30471
14855,24326,28167
13575,22790,27143
14599,21766,26631
13831,20742,26119
14599,20742,23815
14599,19974,22279
14599,18438,22535
16903,18182,21511
13319,18438,21255
12039,18182,19975
11783,16902,19719
12039,15110,20231
12551,15622,20487
13319,16390,19463
13319,16390,19207
13319,15878,18951
11783,15622,19463
13319,15878,19463
13319,15110,19207
13575,15110,19463
12295,14342,19463
12295,13830,19463
12807,13574,19207
14087,13830,18183
13575,14086,18695
13575,15110,18951
13319,16390,20231
15367,18182,20999
15367,19462,20999
15623,20486,20743
15367,20742,20743
16135,20742,20743
19719,21766,19207
17415,22534,21255
17927,24582,22535
18695,28422,25351
20231,30470,25351
20231,30982,24327
20487,31238,24327
21511,-32762,24071
23047,-32506,24327
23303,-31226,24327
23303,-32506,23047
21255,31238,22791
21511,31238,22279
20487,30470,21511
21511,30470,20487
19463,26374,18695
18439,20486,16135
15367,17158,15367
14087,14598,13831
12551,12550,13831
12295,10502,13319
12039,9734,13319
13831,10758,12551
13831,10758,12551
12551,9734,12807
15367,9990,11527
12551,9734,11527
11783,9222,11783
11015,8198,12039
11015,8198,12039
12295,9990,12551
15111,14086,14343
15623,16646,18695
16135,17926,23559
18951,21510,27911
22279,27654,30727
22791,31494,31751
22023,-31226,30727
18951,-26618,26631
20999,-19706,19719
22791,-16122,8199
26119,-12282,775
27911,-5370,-1017
-32762,6150,-1016
-26618,25094,6408
-22777,-26362,11784
-22777,-27898,5128
-23801,22534,-11000
-27130,8198,-20216
-28410,-4090,-21241
-25082,-8186,-22009
-26362,-27898,-21753
-26362,-32250,-21241
-27642,24326,-19705
-28154,14854,-19449
-28410,8454,-19449
-31226,518,-19705
28422,-7674,-19706
22790,-14074,-15354
19462,-16122,-8954
17670,-14586,-4858
14854,-13306,-1274
13318,-11002,2310
11527,-7418,6918
11783,-2554,9734
12295,-506,11526
13319,-250,11526
11783,6,12807
12039,518,13063
12039,1798,14343
12039,1798,14599
11527,1798,16391
13319,3334,16647
13319,3334,16135
13575,3334,16647
17159,4358,16391
14855,4102,18951
14599,4358,18695
14599,4102,19207
14087,4614,22279
15367,6662,23303
17671,7686,23047
17415,7686,24071
17159,6918,26375
15367,6918,29447
16647,6918,29703
18439,7430,30215
19207,9990,-32505
19207,11014,-29177
20487,11526,-28665
20743,12294,-27129
22279,14086,-24313
21511,15622,-20985
21767,17414,-19961
21511,18438,-18937
23559,20486,-16633
23559,22022,-13049
24839,24070,-13049
24839,25350,-12793
24583,27142,-11513
28423,29190,-11513
24839,30726,-8953
24839,31750,-10233
25095,-31226,-10233
24327,-29434,-9977
24327,-29434,-10233
24839,-29434,-12793
25863,-28922,-14841
24839,-28410,-16633
24071,-28154,-17657
24071,-28154,-20729
22535,-29434,-24313
22535,-30970,-26105
22535,-30970,-26617
22535,-31226,-29177
22279,-31994,-32249
22279,-32506,30983
19719,32262,30727
19975,31750,28679
20231,30982,26119
20487,29190,24583
18695,27654,24327
19719,27654,23815
19207,27398,22023
18951,25606,21255
22023,25606,19719
17159,24070,20231
17159,23814,19207
17671,23814,18951
15623,23558,18951
15879,23302,18695
15623,22790,18183
16135,22790,17927
15367,21766,17671
14087,21766,17927
14087,21254,18183
14087,20998,18183
14087,20742,18183
13831,20998,18439
13319,20998,18183
12551,20998,17927
13063,20998,17159
13575,20998,17671
13575,21254,17671
12807,20998,18439
14087,21510,18695
13575,22022,18695
14087,24070,18951
14087,24582,19719
14087,25350,20743
18183,26630,19719
13319,28166,20743
14087,28934,20743
14343,28934,21255
14599,30982,23303
16391,-30714,25095
16903,-29434,24839
16391,-29690,24583
15879,-29434,25351
16135,-27898,25095
16647,-25338,24839
16391,-25338,24839
16647,-27130,24839
16391,-28410,24583
15623,-28666,23047
14855,-30714,21255
15111,-31482,20999
12295,31494,20743
11015,27910,18951
8711,25606,16903
6663,21510,15879
4871,17926,16135
6151,16902,15879
5383,16902,15367
4871,16902,15111
7943,17158,13575
2567,14854,14599
3591,14854,14343
3335,14598,14855
1543,14854,15111
1287,14342,14599
1543,15622,15111
2567,16646,14855
2055,16902,17927
2311,18438,21767
4359,21766,26119
8199,26118,31751
10503,31494,-28665
12551,-28922,-26617
12551,-23802,-27641
9735,-19706,-32249
9991,-13306,28679
9735,-7162,22023
9735,-762,15367
12295,6150,9224
16135,15366,6920
19207,-32762,14088
24327,-14842,21000
25607,-13306,15624
25607,-29946,-760
28422,30982,-7672
20742,7686,-12536
20230,-8442,-14585
20486,-19706,-14841
20486,-27642,-12793
20230,28678,-13049
20486,20230,-13049
19718,12038,-13817
14086,3078,-14073
8966,-3578,-12794
3846,-8186,-8954
1030,-11514,-3834
-2298,-10747,262
-4601,-8443,3590
-6137,-5627,7942
-7161,-3067,11526
-7929,-763,13830
-8953,1029,14855
-9209,2053,17159
-9721,2053,18951
-9465,1285,18183
-10233,1029,17671
-8953,2565,18951
-8953,3845,20999
-9209,3589,20999
-5369,4101,18183
-8185,4357,20487
-7929,4869,22023
-7929,4869,23815
-9209,4101,24839
-8953,3589,24327
-8441,3589,25351
-6905,4101,26887
-8953,4613,28167
-8697,6661,28935
-8697,6405,30471
-7417,6149,32263
-6905,6917,-31225
-6393,8709,-29945
-6393,9733,-27641
-6649,9733,-25081
-5881,9477,-23289
-5881,9477,-22009
-6649,11013,-20217
-6649,12549,-17913
-5625,14341,-15353
-4857,16133,-13305
-2297,19205,-12025
-2041,21253,-9721
-2297,22533,-7673
1031,24070,-8953
-3065,25093,-5881
-2297,26629,-5881
-2041,28421,-4345
-3321,29957,-3065
-3321,31237,-3577
-3065,-32507,-4857
-1785,-31483,-5369
-3321,-30971,-5369
-2809,-29435,-7161
-3577,-28923,-9209
-4345,-29179,-11001
-4601,-29179,-12537
-4345,-28923,-14585
-3321,-28923,-17657
-2809,-28923,-19961
-4601,-28923,-21497
-6393,-30971,-23545
-6393,-32763,-25849
-6393,32005,-28153
-6393,32005,-28921
-8185,30725,-29945
-7929,29701,-32761
-8697,28677,31495
-8953,27909,31239
-4601,28421,29191
-9721,25605,28935
-9977,25861,28167
-9977,26117,28167
-11769,25093,28679
-10745,24325,27399
-10233,23557,26119
-9977,23045,25607
-12025,22021,25863
-12025,22021,25607
-12281,21509,25863
-11257,21765,26119
-12025,21509,26119
-12025,21765,26119
-12025,22021,26119
-12025,22021,26375
-12025,21509,25607
-12025,20229,25607
-12793,19205,25607
-13305,19461,25607
-12793,20485,25863
-13049,22021,25863
-11257,22789,26119
-11257,23557,27143
-12281,24837,27655
-7929,26629,25863
-11257,26117,26887
-11001,26629,26631
-11001,27141,27911
-11769,27909,28679
-10489,31237,29191
-8953,-30971,31239
-7417,-29691,32519
-9209,-28923,-31993
-8697,-27131,32519
-8953,-27387,30471
-6905,-27899,30471
-6649,-27899,30983
-7161,-28411,30471
-7673,-28411,29959
-7417,-30203,29447
-7673,-31483,28935
-7417,-31739,28167
-8441,31749,26631
-11001,27141,24839
-14329,21765,23559
-16121,18949,23303
-16121,17669,21511
-16121,15621,20743
-16121,14341,20487
-12537,15109,18695
-15609,15365,19975
-16633,14597,20231
-16377,13317,19975
-16889,12293,20231
-16121,14085,19975
-15353,15365,19975
-14329,15109,19975
-15609,15365,21511
-14841,16133,22791
-14585,17925,26375
-11513,20997,30727
-9465,24581,-29177
-7673,29701,-24825
-6905,-30459,-23289
-6649,-26107,-25081
-8953,-22011,-29177
-9209,-15099,30471
-9465,-9979,22791
-6905,-2299,17159
-4601,7173,14600
-1529,16389,12040
2823,-31994,15624
6407,-15354,22792
8967,-14586,17928
13319,-16122,11528
5639,22278,-5624
5638,9990,-7672
5382,-6650,-8697
4870,-21498,-8441
6150,-29690,-8441
6662,28166,-8185
7942,18182,-8953
5126,10246,-8441
2054,3078,-9465
-1786,-4091,-8954
-4090,-8955,-5626
-9466,-12795,-1018
-11258,-12539,1798
-14073,-10491,5126
-15353,-8443,8710
-15609,-6139,13062
-16121,-4091,15110
-16889,-2043,16902
-16633,-507,18438
-16889,-507,19974
-16121,-507,19718
-15353,5,19719
-15353,773,20231
-16121,1285,21511
-12537,1797,19719
-15865,1285,20999
-15865,2053,21767
-15609,2309,23815
-15609,2309,24839
-13817,2565,24327
-14073,2821,24071
-14073,3077,24839
-14073,3077,27399
-12025,3333,28167
-11769,3589,28423
-11769,4869,29447
-11001,5381,32007
-9209,5381,-31993
-9977,5125,-31737
-9721,5381,-30969
-9977,6405,-27385
-9465,7941,-25337
-8697,8453,-24313
-6905,8965,-22777
-6649,10501,-18937
-7161,13061,-16121
-6393,15109,-15353
-4601,16901,-14329
-3833,18181,-11769
263,20230,-12025
-2297,23301,-8441
-1529,24581,-8441
-1529,26629,-6393
-2041,28933,-4857
-505,30725,-4857
7,32006,-5625
1287,-32250,-6393
775,-31226,-6137
775,-30202,-6393
-249,-29435,-8953
1287,-28922,-11257
519,-28666,-12025
519,-28666,-13561
7,-29178,-16121
7,-29434,-18937
7,-29946,-20473
519,-29946,-21753
-1017,-30459,-24313
-1017,-32251,-27385
-1017,32517,-29177
-1785,31493,-29945
-2041,31493,-31993
-1273,30981,31751
-1529,29445,30471
2823,29958,28935
-1017,27397,28679
-761,27653,27655
-1273,25861,26631
-2041,25349,26631
-1529,25093,25351
-1529,25349,24839
-1017,24837,24839
-1017,23813,24583
-1017,24069,24327
-2297,23045,24327
-2553,22533,23559
-2553,21253,23815
-1017,21253,23559
-1529,21509,23303
-2297,21765,23047
-3577,21765,23815
-1785,21509,23559
-2041,21253,23303
-2041,21253,23047
-2041,22021,23815
-1529,23045,23815
-1273,23813,24071
7,24326,24327
7,25094,25351
3335,26886,24071
2055,27910,25351
2311,28422,25351
2311,28678,25863
1799,31238,27911
4103,-30202,29703
3847,-29946,29447
4103,-29946,28935
4359,-29690,29191
5639,-28666,28679
5639,-27386,28679
6407,-26362,28935
6407,-26106,28679
7175,-27642,27143
6919,-29690,26375
6663,-30458,26119
5127,-31226,25607
5127,32518,23303
3335,27654,20999
1799,23814,20487
-1529,19973,19975
-1273,17925,19207
-1273,16645,18183
-1273,15621,17671
-2041,15877,17927
1543,16134,16647
-1017,14085,16647
-761,14853,16647
-1529,15365,16647
-1785,14341,16647
-1017,14341,16903
-1017,14085,16647
-761,15621,17159
-761,17925,19463
263,20230,23559
2567,22278,28423
4871,25606,31239
5639,30982,-31225
7943,-30202,-30713
5383,-27642,32519
3335,-24570,27655
3335,-19706,20999
5895,-15610,10503
7175,-9210,5127
12807,1286,4360
16647,11014,4104
21511,27398,8712
25095,-22010,15880
27655,-17658,14088
24839,-30458,-248
26886,31238,-8184
22790,7430,-14584
23302,-7930,-15353
23046,-18682,-15353
24582,-24314,-15097
24582,32518,-14073
23814,20998,-13305
23302,11526,-13817
18182,3334,-14841
15622,-4090,-15354
12038,-10234,-11770
8966,-13306,-7162
4870,-12538,-3066
3078,-10746,-250
2310,-8442,4614
2055,-5114,9478
-505,-1275,12038
-249,773,12295
519,774,13319
2311,1286,14599
263,1286,15623
7,2054,15623
263,2310,15623
1287,2054,16391
2311,2822,17671
5895,4102,16135
2055,2822,17415
3079,2822,17159
3847,3334,19719
3847,3078,20487
4359,3334,20231
4615,3334,20487
6151,4358,22791
6663,5382,24839
6663,5638,24839
7175,6150,25095
8455,6150,26631
8199,6406,29703
9735,7686,30471
9735,8454,31751
10503,9734,-32249
10503,11014,-29433
11527,11526,-27897
11783,12038,-25593
12807,12806,-23801
12807,14342,-20217
14343,16902,-18425
14599,18694,-17657
15623,20742,-16377
14343,22534,-13049
17927,24326,-13561
17415,27398,-11513
17159,28678,-11769
16391,29702,-9977
16903,31750,-8697
17927,-32250,-9465
19463,-31738,-11513
19719,-29946,-11769
19463,-28410,-11769
19207,-27898,-12537
19207,-27898,-15609
19463,-28154,-17401
18951,-27898,-18425
19975,-27642,-21497
19975,-26874,-24825
20231,-27386,-26617
18951,-29178,-28665
18951,-29946,-30457
18695,-30714,-32249
19207,-30970,30727
18439,-32250,29959
18951,32262,28423
18951,30982,26887
20231,30982,24839
18439,29702,23559
21255,29446,22023
19207,27910,20999
19975,27910,20743
17927,27142,20487
17927,26886,19719
18183,26886,20231
18183,26630,18951
18183,25350,18183
17927,25606,18183
17415,24838,18183
16903,24070,18439
16903,24070,17927
16903,23046,17671
17159,23302,17927
17159,22534,17927
17671,22534,17671
17159,22534,17415
17671,23046,17415
18183,23302,17927
18951,24070,18695
18439,25094,19463
19463,27398,19463
19463,28934,19463
20487,29446,19719
19975,29446,20999
22023,30470,19463
21767,31238,20231
23815,-30970,22279
24583,-28922,24583
25863,-27642,24327
24583,-27130,23815
24839,-25338,23303
25863,-23802,23303
27143,-23802,23047
27655,-23802,23047
26887,-26106,21767
26887,-26362,20999
26631,-26618,20999
26887,-27898,20743
26375,-28154,19463
25095,-30458,16903
22023,29958,14855
21767,27654,13575
18951,23814,13319
18695,22534,12295
17415,20230,11527
18183,18182,11527
18695,18182,11783
18951,18950,11783
16135,17670,11527
18695,18182,9991
18439,17926,10503
18439,17926,10503
16903,17926,11015
18951,18182,11015
19975,19718,12039
19975,23302,14855
20487,25862,19463
23303,27142,22023
24839,30214,25863
25863,-30970,29959
26119,-26362,29703
24071,-23546,26375
23047,-19706,20999
23047,-14842,13575
23559,-11258,3079
26375,-4090,-2041
-32762,5126,-3576
-28154,15366,-2552
-23034,-31482,6152
-21753,-16890,12552
-20217,-18170,4104
-22009,30726,-11000
-23034,15878,-19192
-25082,4358,-20728
-22266,1542,-22264
-22522,-19194,-21753
-22778,-24826,-19961
-24314,-32250,-18169
-23546,23814,-18937
-24570,14854,-19961
-27642,5894,-20217
-32250,-506,-18682
29958,-5114,-14842
26630,-8186,-10746
23814,-7418,-6650
21510,-4602,-3066
19974,-1274,1542
19207,1286,3847
18695,3078,6407
18695,5126,9223
17927,7174,10759
19463,6918,11271
19463,7174,11527
19463,7174,11271
17671,6662,13063
17927,6918,14087
17927,6918,13575
18951,7174,13063
18439,8198,14343
19975,8710,14599
18951,8710,16391
20743,9734,16135
18951,9990,17159
18951,9734,18695
19207,9734,19207
22023,10246,19975
22279,11014,21767
22279,11782,22791
20999,11526,24327
22791,12806,25607
23047,13062,26631
23303,13062,29191
24583,15110,31239
25095,15366,31751
25863,15878,-30969
27143,17414,-27129
27399,19462,-25081
27143,20998,-24569
27655,23302,-22777
27143,25606,-19961
27143,26374,-18425
26887,28422,-17145
29191,31238,-16121
28935,31494,-14585
30471,32518,-14841
29191,-30458,-14073
29959,-28410,-14073
29703,-27642,-14329
32007,-25594,-14329
31495,-23546,-15097
31495,-23290,-17657
31751,-23034,-18937
-31481,-22522,-19193
-31737,-21498,-20217
-31993,-20474,-23801
30727,-23034,-26105
28935,-26618,-28665
30215,-26874,-30969
31239,-25338,32263
31239,-23290,30727
30727,-24826,29959
29191,-26874,27399
29959,-26874,25607
31239,-26618,23559
28679,-29178,22279
27655,-31482,21255
24839,30982,19463
24583,29702,17415
24327,29958,17159
27399,31238,17159
25863,30470,16903
25607,29190,15623
25095,28934,14599
26631,29446,14343
26887,29190,14855
26119,28678,14855
23303,27398,14599
24839,27142,13831
26375,27142,13575
27143,28422,14599
24583,27654,14855
24071,27398,14599
25863,27910,14855
27911,28678,14343
28423,30470,15111
27143,30470,15623
25095,29958,15879
