-16632,-1527,31751
-17400,-1527,31495
-18680,-1527,31239
-20984,-2551,31239
-21240,-2551,31239
-17912,9,30728
-17144,1545,30984
-17912,1289,30728
-18168,1545,30728
-16888,2313,30728
-15608,3849,29192
-14584,4873,27400
-15352,5641,27400
-16888,5641,29192
-16888,6921,30216
-16888,8713,30216
-16632,8969,28680
-16376,8969,27912
-18168,9481,29448
-18936,11529,31240
-14584,13065,29192
-9976,13833,26120
-9720,13833,25864
-8952,16137,26120
-9208,17161,26120
-11768,16137,25864
-12024,15881,26376
-11000,15881,26376
-12024,16137,27656
-12792,17417,28680
-13816,15881,28680
-15608,13065,28424
-15608,12553,28424
-15096,12809,29960
-17912,12809,31752
-16376,12297,32008
-14840,9225,30984
-16632,6921,31240
-18936,5897,31496
-19704,5129,32520
-19192,3593,-32248
-17912,3081,-31736
-17400,3081,-31224
-16888,2825,-31480
-16888,3081,-31224
-19192,2569,-30968
-19960,1033,-30968
-18936,777,-30200
-18936,1545,-28408
-18680,2825,-28152
-17912,3081,-28664
-22264,-247,-28921
-25336,-3319,-29177
-22520,-3063,-30201
-19448,-503,-30969
-17144,5641,-30456
-16888,13833,-28152
-16888,15369,-27384
-15096,28937,-25080
-17144,-27895,-23032
-15096,-20471,-22264
-11512,-16119,-21496
-11768,-11255,-18424
-10232,-4087,-15096
-5368,3337,-13559
-2296,8969,-10743
-4344,9993,-6391
-7160,12041,-3063
-7160,17417,-503
-3576,21257,2569
1289,23050,5641
3849,25098,8713
11273,-32758,9481
18953,-22262,7689
18441,-19702,7177
8713,-29430,12809
-12535,10761,27401
-30967,-16887,-25592
28681,29961,-23032
28425,19465,-26360
30217,9737,-30456
29961,-759,-31225
30729,-4343,-31225
30729,-8183,24839
30985,-6647,14599
32265,-4855,3591
-29943,-5879,-7673
-25592,-11511,-20473
-22520,-14583,32519
-20984,-14327,26887
-20472,-15351,26375
-18936,-17143,25095
-18936,-19959,23559
-22264,-20727,22279
-25336,-19959,21767
-24568,-18679,21767
-20984,-16119,20743
-19704,-13559,20743
-19960,-12791,20999
-17656,-13047,18695
-15096,-12535,17415
-15352,-11767,17159
-15864,-11255,17415
-16376,-10999,18183
-16120,-10743,19719
-16376,-9975,18695
-16632,-10231,16647
-16632,-11255,16391
-16376,-13047,15623
-16888,-12279,15367
-16120,-11255,13319
-15096,-10487,12807
-15096,-10743,12551
-16120,-11767,12551
-16376,-12023,11015
-15608,-12023,9479
-14584,-9975,9735
-13048,-8183,10503
-11256,-8183,8967
-11000,-9975,5383
-12280,-13303,2311
-10744,-14071,1799
-9720,-12791,1543
-10744,-12791,-761
-11513,-13559,-2809
-11769,-14327,-3321
-11769,-14327,-3065
-12025,-13559,-3065
-11257,-11767,-4857
-8953,-10743,-7161
-11513,-10487,-6905
-14329,-10231,-5625
-14329,-9463,-5881
-9209,-6647,-9465
-8441,-8439,-9721
-12793,-11767,-9977
-14585,-12791,-11513
-11513,-13047,-12537
-9209,-12535,-12281
-9977,-12279,-12025
-11257,-11255,-11257
-11769,-9463,-10233
-11769,-9207,-9465
-12281,-8951,-8441
-15609,-9207,-7161
-16889,-8439,-5625
-14329,-6647,-4089
-10745,-4599,-2041
-10233,-4087,-249
-11513,-4087,519
-12280,-4087,1543
-12024,-3575,4615
-11512,-3063,7431
-11512,-2295,9223
-14840,-3319,12039
-17656,-4599,16135
-17400,-4855,18439
-17144,-4599,19207
-18936,-2807,23047
-18936,-2807,24583
-18680,-3063,25607
-18424,-2807,26631
-19960,-2295,29959
-21240,-1271,-32761
-22008,-247,-31225
-23544,9,-30456
-23800,-247,-29945
-24312,-247,-29433
-20216,-1015,-30713
-17144,-2551,-32505
-17912,-3831,-32761
-18168,-3319,-31481
-18680,-1527,-29177
-20472,-1271,-29689
-20216,-2039,-30713
-19192,-2295,-30457
-20472,-3831,-30457
-22520,-4855,-29945
-22520,-4599,-28665
-19960,-3831,-29433
-18424,-3063,-29433
-18936,-2551,-29689
-19960,-2807,-29945
-22520,-3319,-29177
-22520,-3319,-29177
-22520,-3319,-28665
-22520,-3063,-28665
-22520,-3063,-28409
-21496,-3063,-28921
-22008,-3575,-29177
-23800,-3575,-28153
-23288,-2807,-27641
-21752,-2295,-28153
-20472,-2295,-28921
-18168,-2295,-29689
-18424,-2039,-28921
-20472,-1783,-28153
-20984,-2295,-28153
-21752,-3319,-27897
-24568,-4599,-29177
-25080,-4855,-29177
-25080,-3831,-27641
-27384,-3063,-26617
-24312,-2295,-27641
-20216,-2295,-30457
-20216,-2551,-30969
-19960,-3319,-29433
-19448,-3831,-29177
-22776,-3831,-28153
-24312,-3575,-27897
-22776,-3063,-28153
-20728,-3319,-28921
-20472,-3575,-29433
-22264,-3831,-29689
-22776,-4343,-28665
-20984,-4343,-28665
-17656,-1783,-29177
-15608,1033,-28920
-17400,9,-29176
-19960,-2039,-29177
-21240,-2807,-28665
-22776,-3575,-29177
-23544,-4343,-29945
-23544,-5111,-29945
-23288,-5111,-29945
-21240,-2551,-29433
-19960,-1271,-28409
-20216,-2039,-28665
-20728,-3063,-29945
-20728,-3063,-30713
-21496,-3063,-29433
-23544,-2551,-27897
-25336,-2295,-26873
-22264,521,-26616
-17400,9,-29688
-18936,-2551,-30713
-22008,-4599,-30201
-22520,-4599,-30201
-21240,-4087,-30201
-20728,-3831,-30201
-20728,-3831,-29945
-21752,-3831,-29689
-22008,-3319,-29433
-20472,-2551,-29945
-19704,-1783,-29689
-19704,-1783,-29945
-20216,-1527,-29689
-21496,-1527,-29177
-21240,-1783,-29689
-22776,-2039,-29177
-26104,-2551,-28153
-24568,-2551,-28409
-19192,-1783,-28409
-17656,-1527,-29433
-20984,-1783,-30457
-23032,-1783,-29433
-21752,-2039,-28153
-20472,-2551,-28153
-21496,-1015,-28665
-19960,1545,-28664
-18936,2057,-28664
-19192,9,-28408
-19448,-2551,-29177
-20728,-2807,-29945
-22008,-2295,-29945
-20984,-1271,-29433
-18936,777,-28664
-18936,2313,-27896
-20984,3081,-26872
-23288,3593,-24824
-23288,4873,-23544
-21240,5641,-24312
-17656,6665,-28152
-14328,8713,-29688
-12536,11273,-28920
-12280,12297,-28152
-13560,11529,-29432
-14328,10761,-32504
-14584,9993,31240
-13560,10249,30728
-14584,9993,31496
-16120,9225,-32248
-16120,8457,-32504
-19448,7177,-31224
-22776,5129,-29688
-22520,2569,-29432
-20216,1289,-30200
-18168,9,-31224
-18936,-1015,-31737
-19960,-2039,-31993
-20984,-2295,-31737
-20728,-2295,-31737
-18168,-759,-31993
-18424,-759,-29945
-22520,-3831,-28153
-22776,-7415,-29689
-16632,-6135,-30457
-3320,8457,31496
15112,-29174,19464
-29176,14602,-3319
-11513,-7414,-26871
-11257,11018,30730
-24313,12042,-27382
19207,-4598,-10231
-1273,26377,6665
-12792,-1271,15880
-19704,-22007,18184
-22264,-28407,17928
-20984,29961,19208
-21240,19465,24584
-18680,8713,25608
-18680,3849,25352
-20728,1289,27912
-21496,-1015,30471
-22264,-2295,31239
-23544,-2295,32263
-23800,-2551,-32505
-20216,-1783,-32505
-16376,-1271,32007
-17656,-1271,31239
-21240,-3063,31239
-21752,-5367,32007
-19960,-6391,-32761
-20216,-6135,-32505
-21752,-6903,32519
-22264,-7159,32263
-20984,-6647,-32249
-19704,-5623,-31993
-20472,-5623,-32249
-20216,-5879,32007
-20472,-6391,32007
-20216,-6647,-31993
-20472,-6391,-30969
-19448,-6391,-31225
-20216,-6647,32519
-19448,-5623,31495
-19704,-5367,32007
-24312,-6903,-32505
-27896,-8439,-31993
-27640,-8183,-32505
-23544,-7415,32263
-23288,-6647,32263
-24312,-5879,-32505
-22264,-4855,-32761
-19704,-3831,32519
-17400,-2807,32263
-15608,-2039,30983
-15096,-1271,30215
-17144,-503,31751
-18424,9,-32760
-17400,521,32264
-17400,-247,30727
-14584,-503,29447
-13816,-503,28935
-16888,-247,28423
-17144,265,28680
-19704,9,29960
-20728,9,30984
-17400,4105,30984
-16120,6153,29960
-15864,5897,28936
-14584,4617,26888
-14328,4873,26888
-14840,6665,26632
-14840,8457,26120
-14840,9481,25608
-14072,10761,26120
-13560,13065,26120
-12536,16137,26120
-9720,17929,25864
-6392,19721,24584
-6648,22025,24072
-10744,23817,24072
-9976,24585,24072
-6136,25865,23816
-5112,29193,22536
-4856,32009,21256
-4856,-32759,20232
-4856,-31991,19976
-3576,-30711,19976
-1016,-29175,19976
1800,-28406,19976
2568,-28662,19976
-760,-28663,20488
-1784,-28919,20744
-2296,-29943,21000
-3064,-32247,21256
-7672,30729,22536
-10232,28937,23560
-7928,28681,24840
-3576,28169,25864
-504,28169,26120
-2040,26633,26632
-8696,21513,27144
-14328,16137,27656
-16376,13321,28680
-16888,12041,29192
-16888,10505,29448
-17144,9225,29960
-18936,7945,30216
-17400,7433,30472
-15864,6921,30728
-15096,5897,31752
-13048,5385,31496
-14072,4617,30728
-17144,4617,30728
-20984,4361,31752
-21496,2825,32264
-21752,1545,-31224
-19448,2057,-32248
-17400,2825,32008
-15864,2825,31752
-15608,2057,31496
-18424,1033,-32760
-19960,1289,-31480
-19960,2569,-31224
-19704,2569,-31480
-16632,3337,-31480
-14584,6665,-29944
-14328,5641,-31480
-17144,265,31240
-21496,-3575,31239
-24312,-3831,32519
-25080,-4087,-32505
-24568,-4087,-32505
-25336,-3831,-32505
-25848,-3319,-30969
-23800,-3063,-31993
-20728,-1783,31751
-19448,-1015,32263
-19448,-1271,-31481
-19448,-503,-30457
-19704,-247,-30201
-16120,1289,-32504
-16120,1545,32264
-18424,521,32008
-22008,-759,-32249
-24824,-2039,-32249
-23288,-1783,-32249
-20984,-1015,-31481
-20984,-247,-30201
-20216,1801,-29944
-17144,3081,-30712
-17144,3337,-30968
-18680,3081,-30200
-19192,5641,-28920
-17656,9225,-27128
-16376,9993,-27128
-17656,8713,-29688
-17912,9225,-31480
-16376,10249,32520
-15608,9993,31752
-13560,9737,31240
-12792,8969,30472
-15608,8457,29704
-18680,9225,30472
-17912,9481,29960
-16632,7945,28936
-16376,4873,28424
-17400,5129,29960
-16632,6153,30472
-17144,4873,31240
-19448,777,31496
-20984,-1783,31239
-22264,-2295,30983
-22776,-2039,31495
-22520,-2295,31495
-21496,-4343,30983
-19960,-4343,30727
-19960,-4087,30727
-23544,-5111,31239
-23544,-5111,-31737
-18424,-3575,-30969
-10488,9,32008
5640,18442,20744
27400,-10998,4104
-17912,-28918,-19191
-5625,5386,28426
-10745,15626,28426
30471,8714,-22006
6919,-18422,-2295
-5625,14601,9737
-7160,5897,11273
-18168,-30455,14600
-21240,28681,13576
-22008,24073,17672
-21496,12297,21768
-19192,5129,22792
-18936,1801,25096
-18936,9,26632
-18168,-1271,26887
-18168,-1527,26887
-18424,-1527,28167
-20216,-2295,29447
-20984,-4087,29447
-21752,-6391,28423
-24824,-6647,29191
-24824,-6391,29191
-22520,-6391,29191
-19960,-6391,28423
-17912,-5623,27911
-17656,-5111,28679
-18936,-5111,29191
-18680,-3831,29447
-17144,-3319,29447
-18424,-4343,29447
-19448,-2807,30471
-19192,-1783,30727
-15608,-503,29703
-19704,-4087,29447
-24056,-7415,29191
-25592,-9207,28423
-23544,-9207,28167
-21496,-8183,27911
-21240,-6135,28423
-25592,-5367,29447
-25592,-5367,29703
-20984,-5367,29191
-19192,-4599,27911
-18424,-3063,26631
-16888,-2039,26375
-15352,-1527,26887
-16120,-1271,27399
-19192,-1015,27655
-19960,-1015,27143
-18680,-247,27399
-17144,777,27656
-14584,1033,27656
-15096,1289,26888
-15608,2825,27144
-13560,3081,25608
-12024,3081,24584
-11768,3337,24584
-14584,3337,24840
-15608,3593,25096
-14328,3593,25096
-14328,4105,24584
-14328,5897,24072
-13304,6409,24072
-13560,6409,24840
-13560,6409,24840
-13560,6665,23048
-13304,6665,20488
-12792,7433,21512
-11768,10505,24072
-10488,12297,23816
-11512,11273,22280
-16376,10249,23048
-20728,10761,25864
-17144,11529,25096
-11512,12297,22024
-9976,13065,20488
-12536,13065,20488
-13048,13321,21512
-12024,15625,21256
-10488,17161,20744
-10488,17417,19976
-10744,16905,20232
-13816,13577,21256
-16376,13321,23304
-16888,13321,23304
-15352,13321,22792
-15352,12297,23560
-16632,11273,23816
-14328,11273,23560
-10744,12297,25608
-10232,13065,27912
-12280,10249,26376
-13304,6665,24584
-14840,4873,26120
-17400,4105,28168
-20216,3849,29704
-20984,3849,29960
-20984,1801,28424
-19192,1033,28424
-17912,1545,29448
-17912,1545,29704
-16888,1545,29448
-16888,1801,29704
-16632,2057,29704
-15096,1801,29960
-15608,1801,29704
-16888,1801,28936
-21496,-503,29447
-21752,-1015,30471
-18936,9,31496
-18936,265,31752
-22776,-503,31495
-24056,-759,31495
-19192,-247,30727
-15864,265,30472
-16632,1801,29960
-17656,1289,29960
-19192,-759,29959
-21240,-2295,30727
-21240,-1783,31239
-20216,9,30984
-19704,-247,30471
-19192,-1015,30471
-18936,-1015,30471
-18680,-1015,30471
-18680,-759,30727
-18936,-503,30983
-17144,1289,31240
-17144,3337,32520
-21752,2569,-31992
-25080,1033,-32504
-25336,521,32264
-21240,-1271,30983
-19704,-1783,29959
-17912,-1783,29959
-16632,-1015,29703
-16632,-247,28423
-18680,-247,29191
-19960,9,30984
-19704,1289,31752
-19192,2057,32008
-17912,3849,32264
-18680,4617,-31992
-18936,5129,-30968
-16376,8713,-29944
-12024,13321,-28664
-11256,13577,-28664
-16120,11529,-29432
-19448,9993,-31224
-19960,8713,31752
-18936,8713,31496
-18936,8713,31240
-19192,8201,28680
-17656,8201,26376
-14840,9737,26376
-13560,12041,27656
-13304,12809,27656
-17144,9993,27912
-20472,8969,29704
-18168,8969,30728
-17144,6153,30216
-17400,1801,27912
-18168,-1527,26887
-18936,-1783,27655
-19448,-503,28935
-19704,9,29448
-20728,-247,29447
-21752,-247,28423
-20984,-503,28679
-19704,-1527,30471
-17400,-1783,30727
-14584,-1015,30727
-10744,2313,30984
4104,20490,26376
25608,-12022,14344
-19960,-31990,-10487
-12025,3850,-32758
-18681,15114,28682
31239,12042,-27382
6407,-6902,-9207
-9977,28169,6409
-11512,18953,9993
-15352,-19959,12552
-19704,-31223,12552
-21240,30473,15112
-20472,19209,19464
-18168,9225,21000
-17144,6153,22024
-16888,6153,25096
-16632,5641,26376
-16120,3337,26120
-15864,2569,25352
-15864,2569,25864
-16632,1801,27656
-19192,-503,28679
-21752,-3575,27399
-22264,-5111,26375
-23032,-5111,27143
-20984,-4087,28167
-18680,-2807,29191
-18936,-2551,28679
-19448,-2551,26887
-20472,-2807,26887
-21496,-3063,28423
-19704,-3063,28679
-18168,-2551,28935
-18680,-1783,29447
-20984,-2295,27655
-19960,-2551,25863
-18424,-3063,26375
-18168,-2807,28167
-22520,-2551,29191
-24824,-2039,28935
-23032,-1783,27399
-17656,-1015,26631
-16376,-247,26631
-18168,777,27656
-16376,1801,27400
-15608,1545,26888
-15864,1289,26632
-15864,1801,26120
-17656,1545,26376
-19704,1033,26376
-18168,521,25864
-18424,777,26120
-20728,2569,27400
-18424,3593,26120
-14328,4617,24840
-13304,4873,24840
-13048,5129,24328
-13048,5641,24328
-13048,5641,24072
-13304,6153,23304
-14072,6153,23560
-15096,6665,24072
-16632,7945,24840
-17912,9225,24840
-15608,10505,24328
-14584,13065,24584
-15608,14345,25352
-14072,14601,24840
-11512,14601,23816
-11000,13833,21768
-11000,13321,20744
-9464,13833,20744
-9720,16393,20744
-12024,18697,21256
-11256,18441,19976
-11000,17673,20232
-11256,17673,20744
-11256,19977,21000
-12792,21513,21256
-13816,21769,21512
-15864,21257,21512
-16632,21513,22024
-15096,21769,21000
-14072,21769,21256
-8696,22793,20232
-9720,22537,21512
-12280,22281,22280
-14072,21513,23048
-11512,20489,23304
-8440,18441,22280
-9464,16905,22280
-12024,17161,23816
-16888,15881,25608
-20728,12809,27144
-18168,12553,27400
-12792,13065,26632
-12024,12553,26632
-12536,10505,26888
-14072,9225,26888
-17400,9481,27912
-16888,10505,28424
-12792,10249,28936
-12792,8457,29192
-14328,8457,29192
-16888,7689,29192
-19448,5641,28936
-19192,5641,29704
-19192,4873,30216
-20216,4617,30216
-21496,4105,30728
-23288,3593,31496
-24056,5129,31752
-20472,10505,31496
-14584,18697,31496
-8696,26121,32008
-6904,-32503,-32760
-6392,-23031,-31736
-5624,-13559,-29688
-6136,-9463,-27128
-6648,-6647,-23288
-10232,-1783,-19704
-13816,2825,-16631
-12792,8201,-14071
-9976,8713,-10231
-11512,7689,-6135
-12280,13577,-4087
-7416,19977,-1015
264,23050,2313
5897,23818,5129
12553,28170,5129
20233,-27638,2569
22281,-20214,2057
16137,-25846,7433
12041,-29686,10761
-23287,-10231,31496
30473,31753,-31224
30729,20489,32520
31753,12553,29960
28937,3081,29192
26377,-3831,29191
27657,-6391,24071
27657,-4087,15367
25865,1289,9224
31241,3337,-1528
-24824,-1015,-16377
-19960,-5879,-30457
-15864,-7159,26631
-14072,-6903,23559
-14072,-6903,21511
-13816,-8439,18951
-15096,-10999,16647
-18168,-12279,15367
-18168,-12023,14087
-16888,-10487,14087
-17656,-8695,14087
-20984,-8951,14343
-22264,-8695,15623
-16888,-6903,15623
-15096,-5879,15879
-20728,-5623,15623
-16120,-5623,12807
-12024,-5623,12295
-9208,-4599,11527
-9208,-4343,9991
-13304,-5879,9223
-16120,-7671,9223
-15352,-7671,8967
-13560,-7415,8455
-13048,-6903,7175
-14584,-6647,7175
-15608,-7159,7431
-14584,-7415,6663
-14584,-7415,5639
-14840,-7159,5127
-14328,-5623,5127
-11000,-4599,3591
-8696,-3831,1287
-11256,-4087,-505
-11513,-7159,-3065
-11513,-9975,-4601
-12537,-10999,-4857
-12537,-10487,-4857
-12537,-10487,-6905
-12537,-10487,-7417
-11257,-9207,-8953
-11257,-8695,-10233
-9465,-7671,-11513
-7929,-7415,-12793
-7417,-8439,-13049
-7929,-8183,-13049
-12793,-7415,-13305
-15097,-6135,-13305
-11001,-6135,-13561
-3577,-4599,-15865
-1017,-3575,-19193
-5625,-4855,-19193
-8441,-5879,-17913
-9977,-7415,-16889
-11513,-8439,-16377
-13817,-7927,-15353
-16377,-7671,-13561
-16633,-7415,-12281
-14329,-6391,-12281
-13305,-4087,-11513
-13561,-2807,-9209
-13049,-2295,-6393
-12537,-1783,-3833
-12025,-503,-2297
-11769,265,-1272
-10233,1801,1288
-9976,1801,2824
-11512,1289,5896
-16120,-247,8455
-17400,-1015,11015
-17912,-1015,14343
-19960,-503,16647
-20472,777,18696
-20472,1801,21256
-16120,2825,21512
-12024,3081,21256
-12536,2825,22536
-16632,2313,24584
-19448,2057,27144
-16888,4105,28168
-14328,5641,28424
-16888,3337,28680
-19704,521,28424
-18936,9,28424
-18168,777,28680
-18680,1289,28680
-21496,1033,29704
-23288,265,30472
-20472,265,31240
-18168,1289,32264
-17144,2569,30984
-19448,2569,30728
-21752,1033,30984
-21496,777,32520
-19960,1289,-31992
-19960,1545,-32504
-19192,521,30728
-18936,521,30472
-21240,777,32264
-21496,777,32520
-19192,1545,32264
-17144,2313,32520
-15352,3337,32520
-15352,4105,32520
-18168,2313,32520
-18680,9,31752
-17656,9,31752
-17400,1033,31752
-20216,1545,31752
-22520,521,32264
-22264,-503,32263
-23032,-759,32007
-22264,521,32264
-20728,777,32520
-19960,521,-32760
-18680,1801,-32248
-16120,3081,-32248
-15352,3337,32264
-16888,2057,31752
-19192,-247,31495
-20984,-2039,31495
-22520,-1527,31239
-23288,9,32264
-22776,-247,-32505
-22776,-1271,-32505
-23800,-503,-32505
-21496,1033,-32760
-17144,1033,31752
-14840,1033,29960
-17144,1033,30216
-16888,2313,31496
-16888,2569,32264
-17144,1545,32264
-17400,1801,32264
-21240,1289,32520
-22776,1289,-32760
-20984,1545,32520
-19192,265,31752
-18168,521,30728
-18168,1033,31240
-18936,2313,-31736
-19704,1545,-31736
-21240,777,32520
-22776,521,32264
-24056,521,-32504
-23544,265,-32504
-18680,265,31240
-16120,1289,30216
-17400,1545,30472
-17144,1289,31240
-16888,1545,31496
-17656,1545,31496
-17656,1033,31496
-18424,1289,31496
-22776,1033,-32248
-24568,1033,-31736
-22008,1033,32520
-19448,777,30984
-16888,1545,29704
-15864,4105,30728
-15864,5641,-32504
-16632,3337,-32760
-17656,1033,32008
-18680,1289,30728
-17912,1289,30472
-18168,1033,31240
-18680,1289,32008
-18424,1545,31752
-18680,1033,31496
-18680,1033,31496
-19704,1801,32008
-22264,1801,-32504
-26872,1801,-30968
-28664,265,-30712
-24568,-247,32519
-19704,2057,31496
-14584,4873,31496
-13816,5641,32008
-16376,5385,-32760
-17144,6921,-31992
-16888,9481,-30968
-14840,10249,-29688
-12280,10505,-29688
-10488,11785,-30200
-13304,11785,-31224
-16632,11017,32264
-14584,12553,31752
-12024,12809,31752
-15352,12297,31752
-17400,12297,32008
-19192,12041,30728
-15864,11017,28424
-12280,12297,27912
-13048,12041,28168
-15096,10761,28680
-15864,9737,29448
-15864,8201,29960
-14072,7433,30472
-14328,5129,30216
-17144,3337,30216
-20728,3593,30472
-21240,1801,30472
-19192,-247,29447
-21752,-1271,30215
-26104,-2039,32263
-25848,-2807,32263
-22776,-3063,32519
-18424,-3319,32519
-11256,777,32008
1544,16138,25608
20744,-16374,9992
-22008,30986,-14583
-6393,5898,30986
-12025,21002,29962
-16121,22794,30986
15111,-8182,-7415
-3065,20745,5897
-10232,-3575,11784
-13304,-22519,12296
-14072,-30455,11016
-15608,31497,14600
-18168,18953,20232
-18424,9225,22536
-17656,6409,23304
-17144,5897,24072
-18168,4361,26632
-17144,3849,28680
-16632,3593,28680
-18936,777,28936
-19704,-2551,27911
-20728,-4599,27143
-23544,-4855,28167
-24056,-4599,28679
-20472,-4855,28935
-19192,-4599,29447
-19960,-3319,29191
-19960,-3575,29191
-19448,-3831,29447
-20984,-3319,30215
-21496,-2807,30471
-20728,-2039,31751
-19448,-2039,31495
-17400,-759,31239
-18168,-1783,29447
-19192,-4087,27655
-21240,-6391,28167
-21496,-7159,29703
-20216,-6135,29191
-18936,-5879,27143
-18168,-5111,26887
-17912,-4087,28167
-17400,-2551,29191
-16376,-1015,28935
-16632,-759,28423
-19192,-1527,28679
-19960,-1783,29191
-18936,-1271,29191
-17400,265,28680
-16632,777,28168
-15608,1289,28168
-15352,2313,28424
-15608,2825,28424
-13304,3337,28168
-13560,2057,24840
-15352,777,23304
-17400,265,25608
-17400,777,27400
-17400,777,27144
-17912,2313,26376
-21240,3593,26376
-22520,5129,27912
-18680,6665,27912
-13560,7433,24840
-12024,7945,23304
-10488,9481,23304
-8440,11785,23304
-7672,14345,23304
-8696,14601,23048
-11000,13833,22536
-14328,14601,22792
-14584,16137,22536
-9976,18953,22536
-6904,21513,21768
-5880,23049,20232
-4600,24841,18440
-1528,26633,17160
-504,28937,17416
-2040,29705,18440
-1784,31241,18440
-1528,32521,17672
-2296,-29431,17160
-2040,-29431,16136
-2040,-29431,15880
-1528,-27639,17160
-2808,-27127,18440
-4856,-29687,18440
-1784,-30455,17928
-504,-30711,18184
-2296,-32247,18184
-4088,31753,18440
-6136,29705,19976
-5880,28169,21512
-6136,26377,21512
-6904,24841,21000
-8696,23305,21768
-11000,21001,24072
-10488,19465,24328
-10488,17673,24328
-14072,15369,25608
-15864,13833,26632
-18680,12809,27656
-21240,12041,28424
-15096,10505,27400
-11000,9481,26376
-10488,8969,26120
-9208,8457,25608
-10744,8201,25864
-12792,7433,26120
-13816,6153,26120
-13048,5641,26120
-12280,6153,26632
-11768,7433,28168
-13048,7433,28936
-15352,6921,28936
-16120,6665,28168
-18424,5385,28680
-20984,3081,28936
-21752,2313,28936
-20728,2313,29704
-17912,2057,29448
-16120,2313,28680
-15608,4105,28680
-15352,4873,27656
-16632,3593,28424
-17400,2313,29192
-18168,2569,29704
-18168,3081,29960
-16120,3849,28936
-16120,4105,29192
-16376,3849,29448
-15352,3593,28680
-15608,3337,28424
-16120,2569,27656
-17144,2569,28424
-20216,1545,29448
-22520,521,30728
-21752,1033,30728
-16632,2569,28936
-14328,3337,28424
-14840,3081,28936
-18680,2313,29704
-19960,2313,29960
-17144,5385,30216
-15352,6409,30216
-14072,6665,30216
-12280,6921,31496
-13816,7945,-32248
-15352,10505,-31224
-14840,13065,-31480
-13560,12809,-31736
-13304,12553,32520
-12536,14089,31240
-13048,15881,30728
-14072,14089,29192
-14072,12297,27912
-17656,8457,24584
-17912,9481,24328
-13560,12041,24584
-11512,12041,24840
-11768,9481,25096
-15096,8969,26376
-19192,8713,28680
-20728,6665,29448
-17912,4361,29192
-15608,2569,27656
-15096,1545,26120
-15096,521,24840
-14072,777,25096
-13816,2057,26888
-16376,2057,27656
-20216,777,29448
-21240,-759,29703
-22264,-1783,30471
-21752,-1015,32007
-14584,521,31240
-5112,6409,27144
11016,26890,16648
-32504,266,-2039
-13305,-19958,-27127
-7929,-7670,30985
-13305,12042,26378
29703,3594,-24054
7943,-24054,-5111
-505,13577,6153
-8696,-10999,10504
-18168,-31735,10504
-20984,30473,9992
-17656,26889,14088
-15352,15113,17672
-15864,7177,19208
-18424,3849,21000
-19192,3081,22280
-18424,2057,22536
-19192,-247,23559
-19448,-247,25095
-20216,-247,26375
-21240,-1783,26375
-19960,-2039,25095
-16888,-1527,24583
-14584,-759,25095
-15096,-247,24839
-16376,-759,25095
-17144,-2295,25095
-18680,-3319,25095
-19192,-3319,25095
-19192,-2039,26887
-19960,-2295,27143
-20216,-2039,27655
-19448,-1271,27655
-19448,-1271,27655
-17656,1033,26632
-15864,1801,25352
-14584,1289,24584
-13816,9,23816
-13816,-759,24583
-13816,-759,25607
-14840,-1527,25607
-16120,-1527,23815
-18680,-2295,23303
-19448,-2295,24327
-18168,-503,25095
-16632,777,25096
-15864,777,24328
-16888,9,23560
-18168,265,23816
-18424,1801,25096
-17656,2569,25096
-14072,3337,23048
-11768,3849,22024
-11768,4617,22280
-11512,5385,22536
-12536,4617,22792
-14584,3337,21512
-15096,3593,20232
-15096,4873,20488
-15608,5385,21512
-14840,6153,22280
-13816,6921,22024
-13560,6921,21512
-12280,8201,21000
-14840,9225,22280
-18936,9481,24072
-20984,9993,25096
-16376,10505,22792
-5112,13065,18696
-2040,14089,17416
-3576,14857,17928
-2808,18185,18952
-4856,18185,18696
-10232,14345,18440
-13816,12041,18952
-14072,12809,19464
-14328,14089,19464
-14584,14089,18440
-15608,13065,17672
-12536,16905,18184
-10744,17673,17672
-8696,18953,17672
-10744,18953,18184
-13560,16905,17416
-13304,15625,17672
-9976,16905,18184
-9208,17673,18440
-12280,16905,18696
-13816,15113,19976
-11256,15113,20488
-9976,15113,20488
-10232,14857,20744
-12792,12809,21512
-20728,10249,24328
-24568,8969,25096
-20216,7945,24584
-14584,7433,24328
-10744,7433,23816
-9464,7689,23816
-11000,8457,23816
-14072,8201,25352
-13816,8457,26888
-11256,8713,27144
-10488,8201,26120
-16376,3337,25608
-19960,1289,26376
-18936,1033,26120
-17400,2057,26376
-17400,2057,25864
-17400,1801,24584
-20216,2313,25864
-21496,4105,29192
-18424,5129,29960
-16632,5129,28936
-14072,5641,27912
-12280,5897,26632
-16888,3593,25864
-19960,2057,25608
-18424,1289,25608
-15608,777,25352
-15608,777,25608
-16376,1801,26376
-17400,2569,26888
-17144,2569,26632
-17656,2825,26120
-18168,3081,27400
-22008,3337,30472
-22776,6153,-32760
-20984,7689,-32760
-11000,5641,26120
-12792,1801,23816
-14840,521,23560
-16632,521,25352
-17656,777,25864
-17656,1289,25864
-18168,2057,25864
-17912,2057,26120
-16632,2057,26632
-16376,2057,26888
-16120,3081,26888
-16376,4105,27144
-16888,5897,28168
-16888,7433,29192
-16888,9225,30728
-16888,10249,31240
-16888,9225,29704
-18936,8969,29704
-22520,8201,32264
-20728,7945,32008
-14072,8713,30472
-12536,11785,29448
-13560,14089,28680
-11768,15113,27144
-11512,15113,27144
-15352,15113,26120
-10744,16649,23304
-9208,15881,21768
-9464,14345,21512
-8184,14601,22280
-7672,14601,23048
-7672,14857,23816
-8440,14601,24328
-13816,10761,24840
-18168,6153,25096
-16888,3849,25096
-16376,2057,24072
-17656,777,24328
-18168,1033,25608
-19192,1033,26888
-19448,1033,26888
-18424,1033,26632
-18680,1545,26888
-17912,3081,27656
-15352,3337,28168
-14328,1801,28168
-8952,4873,24328
4872,24586,15112
25352,-758,-760
-32761,13578,-7159
-4601,8714,22794
-6905,17418,20746
-25593,12042,-30710
14343,-13814,-8951
-2809,20233,4361
-12792,-5623,8712
-19192,-26359,9736
-18936,-29175,9736
-18424,-30967,14856
-14840,25097,17928
-11512,14601,17160
-13560,6665,17928
-14072,4105,19720
-13816,2313,20232
-16376,777,21000
-18424,777,22536
-18680,521,23048
-17912,265,22792
-16376,265,22792
-16120,9,22792
-16888,9,22792
-16632,3337,23816
-13560,6153,25096
-10744,5129,25352
-10488,4105,24328
-19960,-759,22535
-24056,-759,22791
-22520,265,24840
-20216,-1015,24839
-18680,-1783,23815
-17656,-1783,22535
-17656,-759,22791
-18936,777,23816
-19704,1033,23560
-19448,265,23560
-16376,-247,23303
-12024,521,22792
-11512,2569,22536
-14072,3593,23304
-14072,4361,24072
-13304,4105,23816
-13560,3337,22792
-15352,4105,22792
-18680,4617,24584
-13816,5129,25096
-8184,6409,23048
-8696,5897,19720
-11256,5129,18440
-12024,5641,20744
-11512,6153,22280
-11768,6665,22280
-15096,6921,21256
-15864,5641,20232
-13816,5641,20488
-10488,7433,19976
-10744,8201,18440
-13560,8457,18696
-14072,9481,20744
-12792,11273,21512
-12024,11785,19976
-12024,11529,18952
-10488,11529,18952
-9720,11529,18696
-9464,11529,18696
-8696,14345,18696
-9976,15369,18696
-9976,15113,18696
-7928,14857,18440
-7928,16649,17928
-10232,17673,17672
-14584,17417,18184
-14840,19209,20232
-8696,23817,19976
-6648,27401,18184
-6904,27657,17416
-7160,21769,14088
-6648,22025,14088
-5880,24841,14600
-7160,25097,14344
-8696,24329,14600
-8696,23817,15112
-7416,23561,14856
-5368,23305,15112
-3576,24585,16392
-5112,24329,17416
-9976,21001,17160
-12792,19209,18440
-12536,17929,19976
-15096,17161,21768
-17912,17161,23304
-13816,16649,22024
-10488,15625,21512
-10232,15369,21768
-10232,14601,22024
-9464,13833,22024
-9720,12297,22536
-12792,11785,24072
-13304,13321,25864
-9720,14857,25096
-7416,15113,24328
-14328,7177,23560
-15608,7177,24584
-15608,7177,25608
-18168,6665,26632
-18424,7177,27144
-18424,6665,26632
-18936,5385,25864
-17400,5385,25352
-15864,5129,25096
-18168,5641,25096
-16376,7177,25096
-12792,8713,26376
-8184,10505,26632
-5624,11529,25608
-11512,9993,25608
-19960,7177,26376
-22008,4617,27400
-19448,4105,27144
-15864,4361,25352
-14584,6153,23816
-12792,11273,24328
-11000,17929,26632
-11512,26377,28936
-10744,-27639,29704
-8952,-23799,29960
-5624,-12279,31752
-6392,-7159,-29176
-10488,-3831,-26872
-11512,-247,-25592
-6648,3849,-21495
-1528,8969,-18167
-1784,11785,-15095
-4600,12297,-9975
-1784,15369,-7159
2056,17930,-7159
3592,17930,-5879
3848,16138,-1527
6152,16394,777
14345,26378,1801
18953,-27126,1801
11273,-29174,5897
-6135,15625,18441
-22775,-8695,31240
-29943,-26359,-30200
-30967,31241,-31480
-27639,25865,30728
-23799,17417,28168
-23543,12297,27656
-24823,12553,23816
-26359,12297,21512
-30711,10249,3848
-27383,11273,-7416
-22776,10505,-18936
-20984,7945,-31736
-16632,4873,18952
-16632,2057,13064
-16888,1289,13064
-18680,1289,14344
-24312,521,16392
-23032,265,16136
-15864,777,12808
-7672,777,8968
-5880,-1015,7687
-8952,-4087,7431
-10744,-4599,7687
-11768,-3575,8199
-13304,-3319,7687
-14328,-5111,7431
-14328,-6135,7431
-14328,-5367,7431
-14840,-4087,7687
-15608,-4343,7943
-15864,-4599,7431
-13048,-2807,6919
-13048,-1271,7175
-17400,-2039,8199
-14584,-503,7431
-11000,-2551,3591
-10744,-5623,1543
-12280,-6903,1031
-10744,-6647,1031
-9464,-6135,263
-9976,-6135,-1017
-11257,-7415,-1529
-13817,-9207,-1785
-13561,-9207,-3321
-11257,-8183,-5113
-11257,-7927,-5113
-11769,-8695,-5625
-12025,-9207,-6393
-16633,-8439,-5369
-21753,-7671,-5369
-16633,-9463,-9465
-7417,-11255,-12793
-2041,-11767,-15609
-1529,-10487,-17401
-5369,-9719,-17401
-9977,-10231,-16633
-10489,-11255,-17145
-8441,-11255,-18169
-9209,-10743,-18425
-13305,-10487,-18169
-15609,-10487,-17657
-13049,-10487,-17145
-12793,-9463,-16889
-15353,-7415,-16633
-17401,-7415,-15865
-16889,-9207,-15609
-15097,-8951,-15609
-10233,-6135,-15353
-8441,-5879,-16889
-11001,-7159,-16889
-13049,-6647,-14841
-14841,-6903,-13049
-16377,-6391,-10745
-15097,-4343,-8697
-13561,-3319,-6905
-13561,-2295,-4857
-13305,-503,-3065
-13305,1289,-2040
-13049,2313,264
-11512,3337,3080
-12536,3081,5128
-15352,4617,8456
-17144,5129,9736
-18680,2313,11528
-15608,1801,12040
-13048,2569,13320
-13304,3081,14600
-16120,3337,16648
-15608,6153,18952
-14072,7177,21000
-13304,6665,21768
-12792,6665,21512
-15608,6409,20232
-20216,6153,21512
-22264,6153,24840
-21240,5641,26888
-18936,5385,26888
-15864,5897,25096
-13048,6153,22280
-13304,5641,22792
-15608,5129,25608
-17144,5385,26376
-16120,6409,25864
-15096,7433,26120
-15608,7945,26376
-16376,7945,26376
-17912,6153,26632
-17912,5129,26888
-14584,5129,26376
-16376,5641,26376
-21240,5641,27912
-23800,4361,28936
-21752,4361,28424
-17656,5641,27912
-16376,6921,27656
-14072,9481,27912
-11256,10505,27656
-12536,8713,26120
-17400,6409,25352
-21240,4617,26120
-21240,2569,26888
-19704,2313,27656
-18680,3337,27400
-18680,4361,27656
-19960,4617,27912
-18680,4873,28168
-19448,5129,29448
-22264,5897,30472
-20472,5897,29960
-15608,6409,27912
-13304,6921,25864
-16120,5385,26376
-19192,4617,27144
-18936,4873,28168
-16120,5129,27656
-15096,5385,27400
-19192,5641,28424
-20984,5385,30984
-20472,6921,31752
-18936,8713,29704
-16376,8457,26888
-16632,6409,26376
-15864,5385,27912
-14840,5385,28424
-16120,5641,28168
-19960,4361,27656
-21752,2313,27400
-19704,3593,27912
-17656,5641,28168
-18168,5897,28168
-20472,6409,29448
-19960,7689,30984
-18424,9225,31496
-16632,9225,29960
-15864,7689,28424
-16376,6153,26888
-17656,4617,27144
-18168,4873,27656
-18936,3849,27656
-19960,3849,27912
-19704,4873,28680
-18936,6665,29704
-18424,7177,29448
-16632,7177,27400
-13560,8201,26888
-13560,7945,27912
-18936,6921,29192
-20472,5641,30472
-19192,4617,30216
-18680,4361,28680
-18424,5385,28168
-18424,5385,29192
-18936,4105,29448
-18936,4361,28168
-18936,6153,27912
-18424,8713,30472
-16120,9737,32264
-15096,9481,32264
-14840,12041,32008
-14840,16649,-31480
-16120,17161,-30456
-13816,15113,-32504
-13560,14857,30984
-16376,14089,29704
-16888,14857,30728
-18168,14857,31752
-19960,15625,32008
-18168,17673,28424
-11000,17673,25096
-7160,17161,24072
-10488,17161,24328
-13048,17161,24072
-13048,15881,25608
-16376,15881,29704
-18936,14345,30472
-18936,11017,28680
-16120,8201,27144
-14840,6665,26632
-17144,5129,26632
-20472,5385,26888
-21496,5641,27400
-17400,4873,27400
-14072,4873,27400
-14072,3593,26120
-15864,2569,26376
-17400,2825,29960
-15096,4361,31752
-13560,4873,30984
8200,32522,18440
32264,8458,2825
-12280,-8950,-21751
-6649,20746,28938
-19193,24074,30474
23303,11786,-21238
1543,-17654,-2039
-7417,16137,8457
-10744,-5111,10760
-16888,-19703,11784
-19704,-24567,13576
-18680,-32247,17160
-15608,20489,19464
-14328,13321,19208
-16376,9993,21000
-16376,9481,23048
-16632,7945,23304
-18168,4873,22792
-18424,3849,23048
-18424,3337,24840
-19448,2825,26120
-19960,1801,25864
-21240,1033,25864
-20216,1033,25864
-19192,1801,25864
-18680,3081,26632
-16376,4105,26632
-14072,4873,26632
-14072,4873,26632
-12792,5129,26376
-13816,3849,25096
-17912,1801,25096
-20984,-503,25607
-20728,-1015,26119
-18680,-503,26887
-18936,-247,26887
-20216,265,26632
-21240,1289,27656
-19960,1289,27656
-21240,521,27400
-24568,-247,27655
-21496,521,27656
-16632,2313,27912
-13304,3849,26888
-13304,3593,25864
-11512,4873,25352
-9976,7177,25096
-10232,7177,24840
-13304,5641,24840
-16888,4105,24840
-18680,2569,24072
-16376,4105,24072
-19192,4617,25352
-23032,4873,25864
-18936,5641,25608
-11512,7433,24328
-9464,8969,23816
-12280,9225,24072
-15096,9225,23816
-13304,11017,23816
-7928,13833,22024
-7416,15113,21000
-11256,13577,21256
-15608,12297,22024
-15864,12041,23304
-11512,13833,22024
-12280,17161,22280
-15096,18697,22536
-9720,19465,21768
-3064,22025,20488
-1784,23817,18440
-1784,25609,15624
-1528,27145,15368
-5368,27401,17928
-7160,27657,18440
-4600,28937,16392
-3064,28937,15624
-2808,30473,15624
-1528,-30967,15880
-3832,-29431,16648
-9208,-30199,17416
-6648,-28663,16392
-1528,-27383,15112
-760,-27383,13832
-1016,-28919,14088
-1784,-29687,15880
-3064,-29943,16648
-4344,-30199,15880
-5112,-30711,16648
-5880,32265,17672
-6904,29705,18952
-6904,29193,19720
-5624,28681,19976
-4600,27401,19976
-5624,25865,21000
-7160,24585,22792
-8184,23817,23304
-11512,21769,24072
-14072,19209,25608
-15352,18953,26376
-14328,15625,25608
-10488,14089,23560
-10232,12297,23304
-11512,12041,25352
-12280,11785,25608
-12280,12041,25352
-12280,11785,25352
-12536,10505,26120
-13816,10761,26888
-15608,11529,27912
-14072,11785,27912
-10744,11529,26888
-13048,10761,27400
-15864,9481,27656
-15352,8969,27400
-15864,7945,28168
-17912,7945,28168
-17400,8969,28424
-15608,7945,28168
-12280,6409,25864
-10232,6665,24840
-13048,6409,24840
-16632,6409,26120
-16888,6153,27912
-15352,5641,27912
-13560,7177,27144
-14584,8457,28424
-14328,9993,29704
-16376,9737,28680
-18680,6665,27912
-19960,5129,27912
-19192,5129,28680
-17656,5129,28936
-17400,4873,29192
-17656,4873,27656
-18424,5129,26888
-17144,4873,27656
-15096,5129,28168
-15096,6921,28424
-15352,6921,27400
-15352,5385,27144
-14840,5641,28424
-17400,7177,29704
-17400,9737,30728
-13304,10505,29960
-11256,10505,29192
-9208,12041,29448
-10232,13065,30216
-13048,13321,31752
-13816,13321,32520
-14072,13577,30728
-14072,13833,29448
-14328,14857,29448
-14072,15881,29192
-12536,17417,29192
-11000,17417,26632
-11000,16137,24072
-11512,15625,24072
-13560,15369,25096
-18168,15625,26632
-15864,15625,25096
-10744,14089,24328
-9720,13321,24840
-9976,13065,25096
-11768,10761,25608
-14584,7433,25608
-16376,4617,25352
-16376,4361,25608
-14584,4873,24840
-14328,4617,24840
-16888,2825,25096
-19960,2313,26376
-19704,1801,27400
-18168,2057,27400
-18424,1545,27656
-16120,1545,30216
-10744,8201,28680
7944,-32502,19464
-32504,7690,-1015
-7929,-13558,-27895
1031,12555,23562
-11001,18186,24586
30727,4362,-27894
7431,-26358,-8951
-3577,11273,2569
-9976,-11767,6408
-14072,-28663,5896
-15352,-31735,6408
-18680,29705,13832
-17656,19465,18952
-13816,13577,19976
-11768,12041,20232
-14584,9993,21256
-16888,7177,22024
-15864,5385,22024
-16376,2057,22024
-16888,-247,22791
-17144,-247,23815
-18680,265,24328
-18680,521,24584
-17400,521,24328
-18168,521,25096
-21240,777,26888
-20728,777,26632
-17656,1033,25096
-16632,1033,25352
-16632,2057,25864
-16632,2569,25864
-17144,2569,26120
-14840,2825,25864
-12024,2569,24840
-12536,2569,24840
-14584,2313,24584
-16632,9,23048
-18168,-2551,22791
-19704,-2551,24071
-19704,-1015,25351
-17912,265,25352
-16376,521,25096
-16120,1545,24840
-16888,3337,25352
-14328,5385,25096
-12536,5641,24072
-12024,5385,24072
-11000,5129,24072
-12536,5129,24840
-15096,4873,24072
-15352,4105,23048
-15096,2569,22536
-14328,2825,22536
-12536,5897,23304
-11768,7433,23560
-13048,6153,22792
-16120,5129,22536
-18936,5129,22792
-18168,6409,23304
-14840,7433,23048
-14328,7689,23048
-14328,8457,22024
-11000,10761,21000
-5112,13577,20744
-3320,14345,20744
-8696,11785,20232
-12792,11529,19464
-12024,12809,19720
-10488,13321,20232
-10488,13577,21256
-13560,13833,21512
-18424,13321,21512
-19192,12553,21768
-13304,14601,21768
-9208,16393,19720
-6904,18953,18184
-3576,19977,18184
-3320,19721,18696
-6136,19465,19464
-10232,19465,19208
-13304,18697,18184
-13560,17929,18184
-13048,17417,18952
-14328,17417,19208
-12536,18441,19464
-9208,18697,18696
-8696,18697,19208
-8952,17673,19208
-11256,16393,19976
-14328,16393,20744
-14072,16905,21000
-8952,17161,21256
-6904,16649,21512
-9464,14857,22536
-13304,11785,23560
-15608,9737,23816
-15352,9737,24072
-14840,9737,24072
-15096,8713,24328
-17400,8457,24584
-17912,7945,26120
-15352,7689,26120
-13048,7177,24840
-13048,6665,23048
-13816,6153,23560
-14840,6921,26120
-14584,8201,27144
-12280,7945,25864
-13560,7433,25352
-19448,7689,27656
-20472,7177,28680
-17400,4873,27400
-14328,4617,25352
-15608,4617,25352
-16376,4105,25352
-15352,4617,25608
-13304,5385,26376
-13048,6153,25864
-16120,5641,25352
-18424,4873,25608
-18424,4361,26120
-15864,4617,26888
-14840,5897,27400
-20472,5641,29448
-20728,4873,29192
-19448,4617,28936
-15864,5385,25864
-12280,5641,23048
-13048,4873,24072
-15096,3081,24840
-15608,2057,25096
-16376,3081,25608
-17144,4617,26376
-17400,4617,26632
-17912,4105,26888
-17144,3593,26888
-15864,3849,26376
-15864,4361,26376
-16120,4105,26376
-15096,5897,26632
-12536,7945,26376
-11512,8969,26888
-12536,8969,28424
-17912,8201,29448
-23288,7433,30472
-23544,7433,30728
-24056,8201,32520
-24568,9225,-31992
-14328,11017,30728
-12280,11017,28680
-12280,11273,27656
-12280,14089,27912
-11512,16649,26888
-10232,16649,25096
-8440,14857,22280
-7416,15881,22536
-10488,17929,23816
-12536,17929,23560
-9720,16649,22792
-8184,15113,22792
-11000,12297,23048
-14072,11785,24072
-14072,9993,24072
-16376,5129,24072
-17656,3337,24328
-17144,4105,24328
-17144,4105,24584
-14840,3081,24328
-14328,2825,23816
-15096,3337,24072
-16888,4617,24584
-16888,3593,25096
-16888,2057,25096
-17656,2057,26888
-17144,2313,27400
-8440,7689,25864
9480,27146,17672
31752,-1270,-1784
-13049,-20214,-27895
-1529,10762,21002
-8697,16650,22538
32263,8458,-28406
1799,-18934,-6647
-9721,17161,5129
-10488,-8951,6664
-12024,-29431,4872
-12280,31753,3848
-11256,31241,9480
-8952,22537,15624
-9464,13577,16904
-13816,8201,17672
-15864,7177,18952
-15352,7177,20744
-14328,5385,22024
-15608,3337,22024
-17656,2825,22024
-17912,2313,22024
-17400,1545,22536
-18424,777,24072
-18168,1033,24328
-18936,777,24328
-18168,1033,25096
-17400,777,24584
-17144,1545,23560
-16376,2825,22792
-15096,2057,22792
-14840,1033,23560
-14072,1033,23816
-14584,1545,23816
-17144,2313,23816
-16632,2057,23816
-14584,2313,23816
-14584,1801,23816
-14328,1033,23304
-14072,1545,23048
-16376,1289,23816
-19192,777,24328
-20728,-247,24583
-20728,-1271,23559
-20216,-1271,23047
-19192,-503,23047
-16632,1545,23304
-15864,2825,24072
-12024,3337,23560
-14072,3081,22536
-13816,6153,22792
-9464,9225,22792
-7928,9225,21256
-10744,6665,19720
-12792,5641,19976
-13560,5385,20488
-13816,5385,21512
-16632,4873,22792
-21496,4361,22792
-21752,4617,22792
-16632,5641,22536
-9976,6921,20744
-6904,8969,18184
-6904,11273,18952
-5880,14089,20488
-4856,15113,20488
-6904,12809,18696
-11256,10505,18184
-14072,10505,17928
-16120,10505,19464
-15608,10761,20232
-13304,11785,19208
-13304,12041,19208
-9720,14857,19208
-9208,16393,18184
-8952,17417,17416
-8440,17417,17416
-7416,19721,17672
-5624,23305,17416
-3832,24585,16648
-5624,24585,15112
-6136,24329,14088
-6392,23049,14344
-9208,22537,16648
-11000,22793,18440
-10232,22537,18440
-9976,21769,17672
-15352,20745,18952
-15352,20489,19976
-10488,19721,19720
-8952,19209,18952
-6136,18953,17416
-3832,18953,17416
-5624,18441,18952
-8440,17417,19464
-8184,16393,19208
-9464,14089,19976
-11000,13577,21000
-13048,13321,23560
-15352,10761,23816
-14584,9737,23816
-14840,8201,23816
-17144,7689,23560
-16376,8201,23560
-15352,8201,23816
-18680,7945,25352
-23032,7177,27144
-21752,7177,27144
-13816,8457,24328
-7672,9993,23304
-10744,10505,25352
-14840,8969,25096
-14840,7689,24840
-13304,6665,24840
-13048,6153,24072
-14072,5897,24328
-14072,6409,25096
-15352,6665,25096
-17400,6921,25608
-17400,6665,26376
-16888,5897,26120
-17400,4873,26120
-16888,4873,25864
-13304,5641,25608
-13560,5897,25608
-14328,6153,25864
-14840,6921,26888
-15608,6153,26632
-16632,5385,26120
-16376,5129,25608
-16888,4361,25864
-19448,4361,27656
-22264,4617,28680
-22008,3593,28680
-18168,3593,26888
-14584,5385,25608
-14840,5897,25864
-16376,5897,25864
-14584,5641,24840
-13304,5641,25096
-12024,7689,25608
-12280,8457,26120
-12792,7689,26632
-13816,7177,26632
-15096,7689,26632
-16120,8201,27400
-16632,8713,28424
-15864,8969,29448
-18424,11785,-32760
-19960,12297,31752
-17656,12809,28936
-15096,14601,28168
-10744,17161,27400
-8952,17673,25352
-9208,17673,23304
-7928,18185,21256
-6648,18185,20744
-6648,18185,21000
-6904,18697,21256
-7416,17929,21768
-9720,15625,22280
-12792,14089,23048
-14584,12809,23304
-18936,8969,25352
-24312,4873,26632
-23032,2825,26120
-17144,2825,23816
-14584,3593,22536
-14840,3593,22792
-15352,3849,23304
-15352,5385,24328
-15608,5129,24328
-15608,3849,23816
-15608,1033,24584
-14584,2569,25096
-10744,6921,25864
1800,18698,21512
23560,-20214,7944
-17144,24842,-14839
263,2827,28426
-3833,19722,21770
-20985,19978,27658
22023,2314,-20214
-761,-28407,-247
-15097,10761,10249
-20984,-13559,12296
-21496,-27895,8200
-17656,-29431,7432
-15608,28937,13832
-13816,18441,16648
-10744,12041,16904
-10744,9225,17160
-11256,8457,18696
-11000,6153,19464
-13816,3849,19976
-17912,2569,20744
-19192,2057,21768
-18168,1545,21768
-18936,777,22024
-18680,777,22280
-18424,1033,22024
-14072,3593,22280
-12024,4617,23048
-14584,3337,24072
-16888,2313,23560
-18936,1289,21512
-19192,1033,21768
-19960,521,23304
-18168,265,23048
-14328,1801,21768
-13560,2057,21512
-14072,2057,22536
-18168,2313,24840
-22776,1033,25096
-19704,521,23048
-16632,1801,22280
-15096,3593,22280
-14072,3593,22280
-14328,3337,22536
-14328,3849,21768
-14328,3849,21000
-13816,4105,21000
-13560,4361,21000
-14328,4617,21512
-14328,4873,21768
-15352,3593,21512
-15096,3849,21000
-14840,5385,21000
-16120,6153,21768
-16888,5641,21768
-14328,6409,20488
-11256,7945,18952
-11768,8713,19464
-16120,9225,21512
-22776,7945,22792
-21240,7689,21512
-11768,8201,17672
-7928,9481,16904
-8696,10761,17416
-9720,10761,17416
-9976,10761,17160
-9976,12041,17160
-9976,12809,17416
-10488,13065,17672
-10744,13065,17672
-10744,14601,16904
-10744,16649,17160
-10488,16649,16904
-8952,18697,17672
-8440,20745,18952
-7928,22281,18952
-7160,22537,17160
-9976,20745,16392
-11768,19977,16136
-10232,21769,15624
-9976,23561,15624
-6136,24585,15368
-4600,24329,14600
-6648,23817,14344
-6648,25097,14344
-5880,27657,15112
-6904,27401,15880
-8952,25097,17160
-9208,22793,17160
-11000,19977,16904
-12536,18441,18184
-13304,18185,19208
-14840,17417,19208
-13048,16905,18696
-11000,16905,19464
-11000,16393,20744
-11768,15881,22024
-12792,14857,22024
-12536,13577,21768
-13816,13065,23048
-16376,12297,24328
-16120,11273,24328
-14840,11273,24328
-12792,11273,23304
-12792,10761,22280
-16632,8969,22792
-16632,8201,23560
-12280,9737,23816
-9720,10761,23560
-10744,10249,23816
-11768,10505,24072
-13304,9737,23816
-14072,7177,23304
-15864,5897,23304
-17656,5641,23304
-16632,5641,24584
-15096,5641,25096
-15096,5641,23560
-16376,7689,23304
-20984,8969,27656
-21752,8969,29448
-15096,9225,27144
-14072,9225,25352
-14072,6153,22536
-15864,4361,22792
-15352,4361,23816
-16376,4361,23816
-17144,4617,22792
-17400,5129,23048
-17144,5129,24840
-17400,5641,25096
-17656,5641,25352
-14328,6409,24072
-12280,7945,23816
-12280,9481,25608
-12280,10761,26888
-14328,10505,26120
-16632,7177,25096
-19192,5641,25096
-26872,5129,25864
-27896,4873,27912
-22520,5129,26376
-17912,5897,24328
-13304,7945,24328
-9976,10761,25096
-9720,12041,26376
-11512,12041,26888
-12792,11785,26632
-15864,12809,27912
-15096,14345,28680
-14840,14345,27912
-14072,15113,27400
-12536,16649,26632
-15352,17417,27144
-19448,17417,28168
-17912,17161,25352
-11512,17417,21000
-5368,18953,19208
-2808,21769,19208
-2808,23561,20744
-7160,19209,20744
-11768,15625,21768
-13816,15113,24072
-16120,12041,24328
-16888,8457,23304
-17656,6153,22024
-18424,4873,22024
-16120,5897,22792
-16888,6665,23560
-21752,6409,25864
-22776,6409,26120
-19704,6665,24584
-18424,6409,24584
-14072,5129,24584
-16120,4873,24840
-13560,5897,25352
-7928,12297,25608
5896,29962,16904
27656,-1782,-2040
-17913,-22262,-25591
-8953,12042,24842
-14073,25610,24330
32519,19978,-28662
9223,-4342,-9463
-4345,30217,3849
-9208,5897,8457
-13816,-15095,8456
-15096,-22519,7688
-17400,-28151,11016
-18936,25609,16904
-15608,17417,17928
-15096,11529,16648
-15352,8201,17160
-16632,6665,18440
-17912,6153,19464
-18168,5641,19976
-17912,4617,20744
-17656,4361,21000
-19960,5129,22792
-20984,4873,23304
-17400,4873,22792
-13304,4873,20744
-11768,5385,19720
-15096,4105,19976
-18680,2313,21256
-17656,2057,22536
-16376,3081,22792
-16376,3849,21000
-18168,3081,20488
-19960,1289,21256
-19960,1033,22536
-17400,3849,23048
-13560,6665,23048
-15352,6153,22536
-22264,3081,22280
-25848,1801,22536
-21496,2825,23304
-15608,4873,23304
-13304,4873,21000
-13048,4873,18952
-14072,4873,18696
-14328,4617,18952
-14584,4361,18952
-14072,7433,19976
-12536,9737,21256
-12536,9481,21256
-14072,8201,21256
-14584,8457,19720
-13816,8969,18952
-13048,9481,19976
-16632,7689,20744
-19960,6921,21000
-18936,8457,20744
-20216,8457,20488
-20216,8201,21000
-17656,9481,21000
-16376,10505,19208
-12024,12553,17160
-5368,14345,16136
-5880,14601,15880
-9720,13833,15368
-8696,15625,15624
-5880,19209,16648
-6136,19721,17672
-10488,17929,16648
-13048,16137,14856
-12536,16393,14856
-10744,17417,16136
-10744,20233,16648
-16888,20233,17928
-21496,20233,18952
-17912,21769,19208
-8696,23049,17160
-6392,24585,15112
-3576,26889,14344
1544,30474,14344
264,30730,14600
-5368,28681,13576
-8952,27657,13320
-9464,26377,13576
-9976,26121,14344
-11768,25865,14856
-14328,23561,15880
-14584,22025,16392
-13304,22281,16648
-14328,22281,17928
-13304,24073,19720
-7928,24585,19720
-6392,23049,19208
-9720,21513,20232
-13560,18697,19976
-14072,16137,19720
-13304,15625,20232
-13304,14857,21512
-12536,14601,21512
-13560,14089,21256
-16632,12297,22792
-18168,10761,22536
-17912,10249,22536
-15864,10761,23816
-12792,12041,24328
-12024,13321,24840
-15608,12553,25608
-19960,10505,25608
-20472,8457,25864
-19704,8457,25864
-18424,8969,24584
-14584,8713,22792
-13048,8201,22280
-13304,8201,22792
-16632,8201,24072
-19448,7433,24840
-17912,7433,25352
-15864,7177,25352
-13560,8457,24584
-11512,11273,25352
-11512,12553,26120
-11512,12553,26632
-13816,8457,26120
-16376,5897,24584
-22776,3337,23816
-23288,3337,25096
-19704,4617,26120
-19192,5129,26120
-19192,4873,25352
-20472,4873,25352
-20472,5129,26120
-20984,5129,26888
-22008,4873,26888
-19448,6409,25864
-16376,7689,25352
-14328,8201,24840
-16376,7945,25352
-19960,7177,26376
-18680,6921,26376
-16888,6921,26120
-17144,7433,26632
-16888,7689,24584
-15352,7689,23560
-16632,7433,25608
-17912,6921,27400
-17912,8457,28168
-19960,8969,28936
-24056,8457,30216
-18680,10505,29960
-18424,11273,29960
-16632,12041,29192
-12280,13833,28168
-11512,15113,26888
-10488,17929,25352
-10488,20745,25352
-13304,20745,25096
-13560,17929,22536
-13560,15113,21512
-15096,14089,21256
-15864,14089,21256
-16376,13577,21768
-18936,11529,23304
-19448,10761,24328
-19704,11017,24328
-23800,8713,24840
-26104,5897,25864
-20728,4617,25096
-15864,5641,23816
-15608,5641,22792
-16376,4105,22792
-16376,4873,22280
-15864,5385,22024
-12792,7433,23048
-14840,5641,25608
-20472,2057,27400
-22520,777,27912
-18680,3593,26632
-2808,21001,18440
19720,-12022,4360
-24568,32010,-18935
-12281,3594,25866
-16121,16906,23818
-30457,16138,-31478
11015,-5622,-12023
-4857,29705,2313
-8952,5897,6921
-14840,-17143,7176
-21240,-29431,6408
-23288,-32247,10760
-23288,23561,15880
-19960,14601,16648
-18680,9225,18184
-20216,5897,19976
-20216,5385,19720
-17912,5641,19720
-17912,3081,20232
-19448,1033,20744
-20728,777,21000
-20728,1545,21512
-20728,1545,22280
-19704,1801,22792
-19704,1801,23304
-22520,1545,24328
-24312,1545,24584
-22264,777,23816
-20472,-503,23047
-16888,-759,22279
-16632,777,22280
-18680,521,22024
-20216,-503,22535
-20216,-1015,22791
-19704,-759,22791
-19960,9,23048
-20472,265,23048
-19704,777,22792
-18936,777,22536
-19192,1033,22536
-18680,1545,22536
-19960,1545,22536
-22008,1801,23304
-23288,1289,24072
-23288,521,24328
-19448,2057,23560
-17400,2825,22280
-15864,3337,20744
-17400,3337,20488
-17912,3337,21512
-17144,4873,22536
-17912,5129,22536
-17912,5129,22280
-17656,5129,21512
-16120,5129,19208
-14840,4873,18696
-14840,5641,19720
-15608,7433,20488
-18936,7177,21000
-21240,6153,21512
-19704,6153,21256
-17400,7177,20232
-15608,9737,20232
-14328,11017,19976
-13816,10761,18696
-13560,10761,17160
-13816,10761,16904
-15096,11273,18184
-13304,14089,18696
-12280,15113,18696
-12024,16905,18952
-12280,16649,18696
-12280,16649,18184
-13304,16649,18184
-13048,16649,17160
-12536,17417,16136
-13304,18953,16648
-13304,19209,16904
-13304,19465,16136
-10488,23305,16648
-8184,25097,16648
-8440,24585,16136
-12024,23561,16136
-18424,22281,17416
-19448,20745,17672
-12792,20489,17160
-8952,20745,17160
-10232,20745,16648
-13560,19209,16392
-15096,18441,18184
-14840,18441,21000
-15096,17673,21256
-14584,17161,18952
-14584,15881,19208
-14328,14089,20232
-14840,11529,21768
-17656,11017,22280
-19192,10249,22792
-17912,9737,23560
-17144,8713,23816
-20216,8713,25096
-23544,8457,25096
-19448,8201,24072
-14328,8457,23816
-13048,9481,24840
-14328,8713,25096
-17400,5897,23560
-17912,5641,23560
-16888,6153,23816
-16120,6409,23816
-18168,6409,25352
-20472,5641,25352
-19448,5385,24840
-18424,5641,24840
-18424,5641,25352
-19192,4105,25608
-18936,3337,25096
-20216,3849,25096
-22008,4873,26376
-23032,5129,27912
-23288,3337,27912
-20216,3081,26120
-17912,3593,24584
-18168,3849,24584
-19448,3337,24328
-20216,2825,24584
-19192,3337,24584
-16888,4105,24840
-16888,4361,26632
-18168,4361,26632
-18424,4361,25096
-17400,5129,25608
-16632,6153,26120
-16888,6153,26120
-21496,5129,26376
-23544,4105,26632
-23288,3849,27400
-23288,2313,27400
-21496,1545,25352
-17656,2569,23560
-16376,3081,23560
-17656,3081,25096
-19448,4105,26120
-20216,5129,27144
-19960,5385,27656
-18424,8201,27912
-18680,9481,28168
-18680,9737,28168
-19192,10761,30728
-19192,11529,31752
-20984,11785,30472
-23800,11785,29448
-23032,13065,28424
-18680,14345,26888
-14584,15113,24840
-13560,15113,23304
-13304,14857,22536
-12536,15113,22024
-11768,15113,22024
-11768,14345,22024
-11768,13321,22024
-12792,13065,22792
-13816,13065,23560
-15608,11017,24328
-17400,7945,24072
-18680,4873,24328
-18680,3593,24840
-20216,3081,25096
-24824,2057,25096
-26104,521,24840
-20216,521,24840
-18680,2057,25608
-18168,3337,25864
-19192,2825,25864
-19960,2313,27656
-17912,3593,28936
-10232,11273,25608
9736,-30966,12296
-31992,7946,-7415
-16633,-15094,-29431
-13305,11018,24330
-24569,16650,27402
19719,2570,-23286
263,-27126,-4343
-8185,12041,4617
-14840,-12023,6152
-19960,-29687,5128
-19704,-32247,6152
-17912,29193,13320
-16376,19465,16904
-15864,12041,16904
-16120,8201,17160
-16120,7433,20488
-16632,7689,22280
-16376,6921,22280
-20472,1033,22536
-20728,9,23048
-20728,777,23048
-22264,1289,23560
-24312,1289,24328
-24312,265,24328
-20216,1033,24072
-16888,1801,23816
-17144,2313,23816
-19448,1545,23560
-19448,1033,23560
-18168,1033,23560
-17656,1033,23816
-19960,1545,23560
-23800,1033,24584
-23800,9,24840
-21752,-503,24839
-21496,521,24584
-21752,1801,23560
-23032,2057,23048
-23544,1545,24072
-19704,1033,24072
-16632,1289,23048
-16120,2569,21768
-15352,2313,21512
-16120,2057,22024
-17400,2825,23304
-18168,3337,23304
-17912,3337,23048
-16632,4873,23048
-17144,5641,22792
-18424,4617,23304
-21496,3849,24328
-22008,4105,24328
-19704,4617,22792
-16376,6153,22024
-14840,7433,21768
-14328,7689,21256
-13816,7945,21256
-15864,8713,21000
-15352,9225,21256
-13560,9481,20488
-14840,8457,18184
-16888,8713,18440
-16888,9481,19464
-17400,9225,20488
-18936,9481,21000
-20472,11017,21000
-20984,11785,20488
-20728,12041,20488
-13560,13321,19208
-10488,13577,18696
-11256,14089,18696
-12280,15881,18440
-12024,18185,17928
-11768,18953,17672
-12024,18953,18440
-11000,19721,18440
-9208,21769,18696
-8184,23817,18184
-9976,23049,16648
-13560,22025,16648
-15608,22025,17160
-14072,21769,16392
-11512,22281,16392
-12280,22793,16648
-14328,22537,17160
-15864,22281,17928
-15864,21769,18440
-14328,21513,18440
-13304,21257,17928
-13560,19465,18184
-13304,18185,18440
-12280,17929,19208
-12280,17673,19976
-14584,16649,21256
-15608,15625,21000
-18424,14089,22280
-20216,13833,23560
-18936,13321,23816
-14840,11785,23048
-13304,10249,22792
-15352,9225,23048
-16888,9737,24328
-19448,10249,26120
-19192,12297,27400
-16120,12553,25864
-16376,9481,24584
-20728,7433,25096
-22264,6409,25096
-19448,6921,25096
-17912,7177,25352
-17912,6665,25608
-17912,6409,25096
-17912,6409,25096
-17656,6665,25096
-16888,7945,25096
-17144,7945,25608
-17144,7689,25864
-16888,7433,25608
-18168,7433,25608
-20472,7177,26888
-21496,6409,27144
-19960,6409,25608
-18680,6409,25608
-19960,6153,26632
-21240,5385,27656
-22776,4617,27912
-21496,4873,27656
-17400,6665,25864
-17656,6921,25096
-18680,6665,26632
-18680,6665,26632
-18936,5641,25864
-19192,5897,26376
-18680,5641,26632
-18680,5641,26632
-18936,5641,26632
-20216,5641,26632
-22776,5385,26376
-22520,5129,27400
-19192,5385,27912
-16376,6921,27400
-19448,7689,26888
-22776,7689,27144
-23544,7689,29448
-20984,7689,29448
-17400,10249,28168
-15608,12297,27144
-15864,13065,28680
-14840,13321,29448
-14584,14089,29448
-16120,14601,29192
-17144,15369,28680
-17912,15881,28424
-18424,16393,27400
-17400,17929,25608
-15096,17929,23560
-15096,17161,23304
-15096,17161,23304
-13560,17417,21000
-13816,16137,20744
-14328,14089,22536
-15096,13577,24072
-17144,12809,24584
-17912,11529,24584
-16120,9993,24328
-17656,7945,24328
-20984,6153,24328
-21496,5897,25096
-18680,6409,25352
-17400,6409,25352
-16376,7177,24328
-18424,6153,24072
-20472,2825,24072
-20728,1033,26120
-20472,3337,28424
-18936,5897,27912
-11256,13065,22536
12040,-26870,9224
-26872,15114,-12023
-11513,-7670,31241
-9721,13322,22538
-20217,15114,27914
21511,266,-20214
-505,-28407,-759
-10489,9481,6409
-16888,-17143,7176
-20216,-31991,6920
-20728,-30455,10248
-20472,30985,14600
-17912,19721,15624
-17144,11529,17416
-20472,8457,20232
-22264,8713,20744
-20984,6409,21000
-19704,3081,21000
-19704,2569,22024
-22520,3081,22536
-22520,3849,23304
-20472,3081,23560
-19960,1289,23304
-19192,1033,23048
-19192,1545,22536
-19960,2569,22792
-20216,2569,23304
-19448,2313,24072
-18936,2313,23816
-18936,2057,23304
-19448,2569,23304
-21240,2569,23048
-21496,1801,23560
-21752,777,23560
-22008,521,23816
-21752,2313,24072
-21496,2825,24328
-21240,1545,24328
-20728,1033,23816
-18680,2313,23304
-18680,3081,23560
-18424,3337,23048
-16120,3337,22536
-15864,3593,22280
-16376,5641,22024
-16888,6665,22792
-17400,5129,23304
-17656,3849,23304
-20472,4105,23304
-20472,4873,23048
-18936,5641,22280
-17144,6409,21768
-15864,6921,21768
-17144,7433,22024
-17144,8457,22024
-15864,9993,21256
-15352,10249,20232
-15608,8457,20232
-17400,7433,19976
-18168,8969,20232
-18168,10761,21256
-16120,10761,20488
-14072,9993,19464
-14072,10505,19464
-13048,12553,19208
-12792,13321,19208
-13816,13577,19464
-13816,15625,19720
-13816,16137,19720
-10744,18185,18952
-11768,18953,18696
-14072,17673,18440
-12024,16649,17160
-10488,17417,16904
-9464,19209,16136
-10488,21257,17160
-14072,22793,19720
-14840,24073,19720
-11768,24585,16648
-9720,25353,15112
-8952,27145,15368
-9208,27145,15880
-9464,26377,15880
-9720,25097,15624
-11000,24329,15880
-13048,24073,15880
-13560,23817,16136
-15352,22537,19464
-17400,22025,21000
-15352,21769,19208
-14328,21257,18184
-14072,19209,18952
-13048,18697,20744
-13048,18697,22280
-13560,18441,22024
-14328,16649,21512
-16632,15113,21768
-18680,14345,23816
-17912,13577,24328
-17144,12553,24072
-17144,11017,23304
-17912,10505,23304
-17912,11273,24328
-17656,12297,24328
-16888,12297,23816
-17400,11017,23560
-18168,10505,24840
-19960,9481,26376
-19704,7945,26632
-16376,8713,24584
-16120,9225,23048
-17400,8969,24328
-16120,9481,26376
-17400,8713,26632
-20728,7689,25608
-22520,7177,25352
-20216,7433,25352
-20728,7433,26376
-20728,7945,26120
-19192,8713,24840
-18424,7689,24328
-18680,6921,24840
-18936,7433,25608
-20728,7945,26120
-20984,7945,26120
-19704,6665,25608
-19448,5641,25608
-20472,5641,25608
-22520,5641,25608
-23288,6665,26632
-22520,7433,26888
-22776,6665,26120
-21240,6921,24840
-18168,7433,24840
-17144,8201,25352
-18168,8969,25352
-19704,8713,25352
-19960,7433,25352
-19448,7177,26376
-19448,7177,26120
-19960,8457,26376
-20472,8457,26376
-18168,7945,26120
-17656,8713,26376
-18680,9737,26888
-19448,11017,27912
-20216,11273,28168
-23032,12553,29960
-21496,15881,30984
-16888,17673,30728
-16376,16649,29704
-17912,15625,27912
-17656,16393,26120
-15096,19209,25864
-14584,20745,25096
-14840,19721,23048
-13816,18441,20744
-11512,18441,20744
-11000,19465,20744
-13048,18441,21000
-15352,15113,21000
-19448,13321,23048
-24056,13321,26120
-22776,13065,26632
-19704,11017,25096
-19448,8457,24072
-20216,5385,22792
-18680,6409,22792
-17144,8457,23816
-15608,8457,23816
-15864,8201,23816
-20216,6665,25096
-22776,4361,25608
-21496,3849,25864
-18936,4873,26120
-13816,7177,25864
-6392,15625,22792
7944,-27126,10760
31240,12298,-9463
-15353,-11254,-31479
-12281,12554,24586
-20729,17418,27146
24071,2826,-23798
2311,-26102,-3575
-8697,12809,6409
-13304,-10999,8200
-17400,-28407,7432
-20472,-28663,9224
-21240,-32247,14600
-20216,20745,16136
-19960,16905,15880
-20728,9993,18952
-21752,7689,20232
-23544,6409,20744
-24568,4617,21000
-24312,3593,21256
-21752,3593,21768
-19192,3849,22280
-20472,3849,22536
-20728,3849,22280
-18936,3849,21512
-18168,4873,22280
-17912,5897,23560
-18424,5641,23816
-21240,4617,24072
-23032,3081,24072
-21752,2569,23816
-19192,3593,23560
-17400,4105,23048
-19192,4361,23304
-21496,4617,23816
-22008,3849,23304
-20984,4105,22536
-18424,5385,22536
-17144,5385,22024
-17144,5385,22536
-22776,4105,24072
-22264,3337,23816
-19192,2825,21768
-18936,2825,20744
-22264,3081,21256
-22008,3081,22280
-18680,4105,22536
-18424,5641,22536
-18424,7433,22536
-17912,8201,22536
-17912,8713,22536
-16376,9993,21768
-14840,11017,22024
-15352,10505,22280
-16632,8969,22024
-16888,7945,21768
-17656,7689,21000
-19704,8713,20744
-21240,9481,21000
-19192,9481,21000
-16376,10505,21000
-15864,10761,19976
-16888,11785,19720
-16376,12297,18952
-14072,12297,18440
-12792,13577,17928
-13816,13577,17928
-18424,14089,19464
-18680,15881,20744
-16120,17161,20232
-15096,17929,18696
-11768,18953,16904
-10232,19465,16648
-10488,19721,16904
-10744,20233,17160
-10488,22281,16648
-9976,24841,15880
-9976,25353,15624
-10744,25097,16136
-11000,25353,16136
-12024,25097,16136
-12024,26633,15880
-12280,27657,15880
-12280,27145,15112
-13304,26633,14856
-14328,26889,16392
-16120,26377,17160
-16632,25353,17672
-14584,24841,17672
-13560,24585,17416
-11768,22537,18184
-11512,21513,18184
-13560,21001,18696
-16376,19209,19464
-17912,17161,20488
-18168,16393,21512
-16120,16393,22792
-15864,16393,23304
-16632,14345,23304
-20216,11529,24072
-24312,10249,24840
-22520,10249,24840
-17912,10249,23560
-17912,9993,23560
-18424,11273,24584
-17400,11529,24840
-17144,11785,25096
-17400,11529,25096
-18168,9737,24328
-19704,7689,24072
-21496,7689,24072
-21752,8969,25096
-20984,9225,25864
-19960,8969,26120
-19448,8969,26120
-19192,8969,25864
-21496,8201,26120
-23032,8201,27144
-20728,8457,27144
-19192,8201,26376
-19192,7689,26120
-19192,6921,24072
-19960,6665,23816
-20216,7433,25608
-18680,8457,27144
-18936,8713,27912
-21496,6409,27144
-23800,4873,26120
-24568,5129,26120
-24824,6409,26120
-25080,6409,26376
-25080,5129,26888
-25336,4617,27400
-21240,5641,26632
-19448,7177,25864
-19704,6921,25864
-19448,6921,25608
-18936,6921,25352
-18936,6921,25864
-18680,7433,25608
-20984,6665,25608
-22008,6409,25864
-24312,6921,26632
-23544,8457,27400
-20216,11529,28680
-19192,11273,28680
-18424,10761,27144
-17400,12041,27144
-16888,13321,28424
-16888,14601,29448
-18936,14857,30472
-20472,14857,30472
-17400,15113,28168
-14584,16137,25608
-14072,18697,25864
-15352,20745,26120
-15864,19721,24584
-14584,18441,22280
-14840,17929,22024
-17656,17161,23816
-18936,15881,24072
-17144,14601,23048
-16888,13577,23048
-18936,13577,24072
-20472,13833,24840
-16888,11017,24840
-17144,7945,24072
-17656,6665,22792
-19192,6665,22536
-21752,5385,24072
-21496,4361,25608
-20216,4361,25352
-20216,5385,24584
-22776,4873,24584
-23544,3593,27400
-20472,5129,28424
-16888,7177,26632
-10488,13577,22024
6408,-31222,12296
-31992,7690,-6903
-9209,-12790,-31479
-7929,13834,21514
-20729,20234,24842
25863,11274,-23286
3847,-16630,-1783
-11257,19465,8969
-17400,-6135,11016
-20728,-26871,9736
-20216,-28919,9480
-20472,-27639,9992
-20472,24585,17928
-18424,16393,18696
-17912,11017,19464
-19960,8713,19720
-21752,6921,19976
-22264,5385,21512
-22008,4105,23304
-20984,3593,23304
-20984,3337,22024
-21240,3337,22280
-20984,2825,22792
-20216,3081,23304
-20216,3337,23048
-22008,2569,23304
-24056,1801,23816
-24824,1545,24328
-23032,1545,24584
-20472,1033,24584
-19192,1033,23816
-21496,1289,23048
-22776,1545,22792
-20984,2057,23304
-19960,2825,24072
-18936,3337,24072
-19192,3337,24072
-19192,3337,23560
-18936,3849,23560
-19192,3849,23816
-18936,3081,23304
-20984,3337,23304
-22776,3081,23048
-21240,2825,22280
-18936,3849,22536
-19448,4361,22536
-20216,4361,22792
-18936,4361,22792
-17912,4873,21768
-17400,5897,21256
-17144,5641,21256
-18680,5897,22280
-20216,8201,23816
-18936,8457,22792
-17144,7433,20744
-16632,7689,20488
-17144,7177,20488
-16632,7177,21000
-14584,9737,21256
-14072,11529,20744
-14584,12041,19976
-15352,11785,20232
-17912,12041,20488
-16120,11785,19976
-13048,11785,18696
-13048,12553,18440
-13816,12809,18440
-13304,14857,18440
-11768,16393,18696
-10744,16905,18952
-12280,17417,18696
-13048,19209,17928
-12024,21257,17928
-12024,21257,17928
-9208,21257,17160
-8952,22025,15880
-11512,22025,15624
-11512,22537,15624
-11512,23561,16392
-12024,25609,17160
-10744,27401,17160
-9208,27913,16392
-5880,29449,16136
-6904,30473,17672
-11256,29193,19208
-15352,26121,19976
-15352,24329,19720
-13048,23817,19464
-13304,22281,19464
-13304,21001,19464
-13560,18441,21000
-14328,16393,21256
-14840,16649,21256
-15352,17929,22536
-15608,16137,23048
-15096,15113,23304
-14072,14857,23816
-15352,13065,24328
-16632,11529,24840
-16632,11273,25352
-16632,11785,25352
-18680,11529,26120
-20472,9993,26632
-20216,8457,25864
-20984,7689,25096
-20984,7945,25608
-19192,9225,26632
-18424,8969,27400
-18680,7433,27144
-19960,7177,27144
-19960,8457,27144
-19192,8713,27656
-14072,11273,27912
-14072,11785,27400
-19192,8969,26888
-21752,6409,27144
-19960,6665,27656
-17656,7945,27400
-18680,7945,26632
-22776,6921,26632
-24568,5897,26632
-20728,6153,27656
-15864,7945,27912
-15864,9737,26376
-17400,9993,26120
-19192,8969,27144
-19704,7689,27144
-17912,7945,26632
-18680,7689,25864
-20216,7433,25864
-21496,7689,26888
-22264,7689,28424
-19960,7945,28424
-17144,8201,26120
-17144,7945,25864
-17144,8969,26888
-17144,8969,26888
-19704,7689,26632
-21752,7689,26376
-20216,7689,26376
-17400,7433,26376
-18680,7689,26120
-19448,8713,25864
-19192,11017,27912
-18680,12041,29192
-15608,12553,28936
-15352,13833,27656
-16632,13833,27656
-16888,14601,29704
-16376,15881,31240
-13560,18441,30728
-12024,21769,29192
-12792,23049,27656
-14072,22793,27912
-14840,21257,26888
-15608,19209,24328
-16120,17161,22536
-15864,16905,22280
-13560,19209,22792
-13304,19209,23048
-14072,16905,22536
-14840,15881,22536
-17656,15369,24584
-18680,14601,24328
-17656,12809,24072
-16888,11017,24072
-17400,10761,24328
-17656,11017,24584
-16888,11273,25352
-14840,10249,25352
-14584,7945,23304
-16376,6665,22024
-18168,6665,23048
-18936,6409,25864
-18680,6153,26632
-17912,6665,26376
-9464,14601,23560
7688,-29174,14344
30984,8458,-3063
-11513,-12278,-28151
-4857,19210,22026
-13561,28682,24842
30727,22026,-24566
4359,-5622,-5623
-9209,27401,5385
-13048,4361,9993
-14328,-2807,11528
-20984,-24823,12040
-24056,-31735,15368
-22776,22537,18696
-20216,15881,19720
-20216,11529,20488
-17656,10761,20488
-14328,11017,20232
-15352,10505,21256
-18168,8201,22024
-18680,5641,22792
-20216,3849,23048
-21240,3849,23304
-22264,4361,23048
-23544,3081,23048
-23288,2057,23304
-19448,4361,24072
-14072,6409,23816
-13048,6409,23560
-13048,6409,23304
-16120,5129,23304
-20984,1801,23816
-22264,521,23560
-19192,2313,24072
-16632,3337,24328
-15352,3593,23560
-17144,3849,23048
-20984,3849,23304
-22776,4105,24840
-21496,5129,25096
-19192,5641,24584
-16632,5897,23048
-13304,5897,21768
-13304,5641,22024
-16376,5897,22024
-18424,5641,22280
-19192,4873,22280
-19192,4361,22280
-17144,5641,21512
-16632,6921,21000
-16632,7433,21000
-15864,8201,22024
-18936,8713,23304
-19704,9737,23048
-16632,11785,23304
-14584,12041,21768
-13304,11785,19464
-12792,11273,19208
-13048,11017,19208
-15096,11017,19464
-15096,11529,19720
-14072,12553,19720
-14840,13065,19976
-14840,13321,18952
-14072,14089,18952
-13816,16649,19976
-15096,18185,20488
-15608,17929,19720
-12024,19209,18440
-10744,19465,16904
-10488,19721,16392
-9720,20233,16392
-9208,20233,15368
-8952,21769,15368
-8696,23049,15368
-10232,23049,16136
-12024,23049,17160
-11256,24329,16136
-9208,26633,14600
-9976,28425,14600
-11512,28681,15624
-11000,28425,16392
-9976,29449,16392
-9720,29193,14856
-9720,29193,13576
-10744,28681,13320
-12536,28169,17928
-11000,28169,18696
-10232,25609,18184
-11000,23305,18440
-11256,23305,19464
-11256,23561,19464
-13816,22793,22024
-19448,19977,23816
-21496,16649,23816
-20728,15881,23304
-16376,15625,22536
-14328,14857,22280
-15864,13833,22792
-15608,13577,23560
-14840,14601,24584
-15096,14601,24584
-15864,12809,23560
-18168,11785,23560
-19960,11529,25096
-18424,10761,25096
-16120,9993,24840
-17144,9993,25096
-18680,10249,25096
-17656,9993,25096
-16376,10249,25096
-16888,9993,25608
-18424,10249,25608
-21496,10249,26632
-21240,9225,27656
-15864,9225,25608
-12024,11785,23560
-15352,11785,23560
-20728,8713,25864
-20216,7433,27144
-17400,7433,27144
-17656,8457,26632
-20472,8457,26376
-20216,8201,26376
-18936,7177,26888
-22520,7177,28168
-23800,7945,28680
-20728,7689,27144
-17912,7433,25864
-17656,7689,26120
-20216,7689,26888
-22776,7177,27144
-23032,6921,27912
-22264,6153,26888
-22008,6409,26888
-22008,7433,26888
-18936,8457,27144
-18680,7689,26888
-17656,7177,26888
-19192,6665,26888
-20728,6665,26888
-20472,7433,26888
-19192,7945,27144
-19448,7945,27656
-19192,8201,27656
-18424,9993,28424
-18680,10761,30216
-19960,10249,30216
-17656,11785,29960
-15864,13577,29960
-18680,14089,30728
-20728,14089,31496
-19960,14345,31752
-18424,14857,31240
-16120,16905,29704
-15864,19465,28680
-18424,19721,28680
-19704,17673,26888
-15352,17417,24328
-11768,18441,23048
-12024,18953,23048
-20984,17673,26376
-20984,15369,26632
-18168,14345,25352
-17144,14601,25352
-17400,14089,25352
-16888,11273,25608
-16632,8713,25352
-17912,6921,25096
-18424,5897,24840
-19448,5385,25352
-20216,5385,26120
-20472,5385,26376
-20216,6153,26376
-21752,6153,27656
-22264,4361,29448
-20728,4617,29192
-17912,5129,27400
-9976,10505,25352
4360,29706,18440
23560,-1014,4360
-21240,-19958,-19447
-12537,13322,27914
-20985,22026,28170
25095,14602,-23798
18695,9738,-19446
-9977,26377,7177
-14840,2569,11785
-19192,-18679,12296
-20472,-26615,11272
-20472,-30455,14856
-22008,24585,20232
-22520,16137,21512
-20216,11273,21768
-18680,10249,22024
-18936,8969,22024
-19448,6921,23304
-19448,5385,24584
-20984,4105,24584
-21752,3337,24584
-22520,3593,25608
-23288,2569,25608
-22008,1801,25352
-21496,1801,25096
-21240,2313,25352
-20216,2313,24840
-20472,1545,24840
-20216,1545,25096
-19960,2057,24840
-20984,2313,26120
-21240,2825,27400
-20984,2825,27144
-23032,2057,26888
-23800,1033,25608
-23800,3081,27912
-22776,5641,29704
-19192,4873,27912
-17400,2569,24584
-18680,1545,24328
-20728,1545,25096
-20728,2313,25864
-20216,3337,25608
-20472,3337,25608
-21496,3081,25608
-23288,3593,25864
-19448,5129,24840
-15352,6153,24072
-15352,6153,23816
-15608,6665,24072
-18168,6665,24072
-18680,7177,24072
-17912,7433,23816
-19192,7177,23816
-20984,7177,23816
-20472,7945,23816
-18936,8713,23816
-13816,12041,24072
-13816,11785,23048
-15352,10761,23048
-18424,11017,23560
-18680,9993,23304
-17656,9737,22280
-17144,11017,22280
-17656,11529,23048
-17912,11529,22792
-14840,14857,22792
-12536,16649,22536
-11000,17161,21256
-11768,17161,21000
-14328,16905,22024
-16376,17161,22280
-15096,17673,20744
-14584,18697,20232
-16632,19977,21256
-16120,20233,21256
-14840,20489,21000
-12536,22537,20232
-9208,24585,18696
-9464,25097,18184
-11000,25353,19208
-9976,25865,18952
-10488,26889,19208
-12536,26377,19464
-15864,24073,20232
-15608,22793,20232
-15352,22793,21512
-17656,22793,23048
-18424,21769,23816
-17144,20745,23560
-14328,20233,23560
-10744,20233,23816
-12536,18953,24072
-15352,16649,23560
-15352,15881,25352
-15096,16137,27144
-14584,15369,27400
-15864,14089,28168
-16632,13065,28424
-14328,12041,27656
-15864,10249,27912
-20472,9225,27912
-22264,7945,28168
-23288,6153,28680
-23288,6153,29448
-21240,8201,29448
-20472,8457,29448
-17144,8713,28936
-18168,7945,28936
-19448,6921,27912
-17144,6409,27144
-16632,6665,28168
-18424,6921,29704
-20472,7177,30472
-20472,7433,29704
-19448,6409,29192
-18680,5385,29448
-19704,5129,29960
-21752,5641,29704
-22520,6665,29704
-20472,6409,29704
-18424,5641,28936
-18424,5897,28936
-20472,5641,30472
-22264,4873,31240
-20984,4617,30472
-18424,4873,29704
-18680,5385,28680
-19960,5385,29448
-19960,5641,30728
-19960,4105,30728
-20216,4105,30728
-20216,5129,30472
-20728,5385,29960
-22264,4873,29960
-22008,4873,30472
-19448,5385,30984
-17400,6153,31240
-19192,6153,30984
-24312,4617,31240
-24824,3081,30472
-20472,3081,29960
-19192,3849,29960
-21752,3593,30984
-22520,5129,32264
-20472,7177,-32760
-17912,9481,31496
-16120,10505,31752
-17400,11017,-31736
-19192,12553,-30200
-19192,13321,-30200
-17400,13321,-30968
-16888,12553,32520
-17656,12809,32264
-17912,14601,32008
-19192,15369,31752
-19192,15369,30216
-16632,14089,27400
-19192,14089,28424
-18680,14345,28424
-14328,15369,26120
-13048,14089,24840
-14584,12297,26632
-15352,12297,29704
-16632,11017,29704
-20216,8969,29448
-23288,6153,29960
-21496,3593,29704
-18936,3337,29960
-17912,3593,28936
-17656,2569,27656
-20216,2313,28168
-24824,1545,31240
-25080,1801,-32504
-21496,1801,-32504
-19960,1801,32520
-19704,1545,32520
-14840,3849,31496
-1784,20233,24584
20232,-12022,8968
-22264,-31990,-16375
-16377,-18166,-24311
-16121,14346,28938
32519,11018,-26870
9735,-12534,-7159
-6649,22537,7945
-13304,-3319,11528
-17656,-25847,10248
-18936,32521,9480
-19448,31497,15368
-22520,20745,21768
-22008,12553,23048
-18424,8713,23816
-17912,5897,24840
-19704,4105,25608
-22264,2825,26120
-23288,1545,26888
-22008,265,28168
-20984,9,28424
-20728,-247,28167
-20984,-503,27655
-21752,-247,27911
-23288,9,29448
-22264,9,29704
-19704,-759,27655
-18424,-503,27399
-18424,-759,27143
-20216,9,29448
-20984,9,30216
-21496,-503,30215
-22264,-1783,30215
-24056,-2295,30727
-25592,-2295,31239
-24056,-1527,30727
-21240,-1783,29447
-19448,-1527,28167
-18424,-759,27911
-19192,-247,28935
-19448,-247,28679
-21752,-503,27911
-22520,-1783,27911
-20472,-1015,29447
-18936,1545,30984
-18168,2313,30728
-18168,2569,27912
-19192,1289,26632
-17912,1289,27144
-16120,2569,27656
-15608,3849,28936
-16888,3849,29192
-20216,2825,28168
-22008,2569,27656
-18936,3081,27400
-17912,3593,27144
-19192,4617,27656
-19192,5129,26888
-17912,5897,25608
-17144,5129,25096
-16632,4617,25096
-18168,5641,26376
-18168,6665,26632
-16120,8201,26120
-14072,8969,25096
-13816,8713,23304
-16376,8969,24072
-16632,9481,25352
-14840,10505,25096
-14840,11273,24840
-14840,11785,24072
-15608,12809,24072
-14072,14345,24840
-10232,15625,24840
-10488,15625,23560
-12024,16137,22792
-11000,17161,23048
-11512,17929,23560
-11768,18185,23304
-16376,18441,23560
-17144,18953,24072
-16632,20233,23816
-13816,21257,23048
-11256,21257,22536
-11256,21001,22280
-12536,20489,22280
-12792,19977,22536
-14328,19209,23560
-15864,18185,24328
-15096,18185,24584
-13304,18185,25096
-11768,16393,25608
-13304,14089,26120
-16888,12553,26888
-17400,12041,27144
-18424,10761,27400
-18936,9737,28168
-17400,9737,28680
-16120,9737,28680
-15864,9737,29704
-18168,8713,29704
-19192,7689,29448
-17400,6665,29192
-15352,6409,28168
-16888,5129,28424
-18680,5385,29960
-19960,5385,31240
-19448,5641,31496
-18936,5129,31240
-20472,4361,30984
-21240,4361,30728
-20984,4361,30472
-19192,4361,30472
-18936,3593,30216
-21240,3337,31496
-21240,3337,31752
-21496,3081,32008
-23032,3337,-32760
-21496,3593,32008
-19960,3593,30984
-18168,3593,30984
-16376,4105,31240
-19448,3337,31496
-21752,1545,31752
-19448,1801,32264
-17400,4105,32008
-17912,5385,30216
-18424,4361,29448
-18936,2825,28936
-18936,1033,30728
-19192,1289,31240
-22264,1545,-32504
-24312,2313,-31480
-22520,2569,32520
-18680,3337,31496
-18936,3081,31240
-20472,2825,32008
-20216,2313,32264
-20472,2569,-32760
-21496,3337,-32760
-20728,2825,32008
-18168,2825,31240
-16888,2313,30984
-18680,2057,31240
-21240,3593,-32248
-22008,4361,-31992
-19704,5385,32264
-19192,6921,-32760
-20472,8969,-29944
-20216,9737,-28408
-18936,10761,-28664
-17400,11273,-30456
-17912,11529,-31736
-18680,11785,-31736
-14840,14345,31752
-14072,14345,30728
-13048,14601,28424
-13048,15625,27912
-13304,15625,28680
-14584,13577,28680
-15096,12553,27400
-14840,12297,26376
-15864,10505,26888
-17144,9993,29960
-19448,9481,31496
-20984,7177,30984
-19960,5129,29192
-19448,4361,29448
-21240,2569,30728
-20728,1801,30472
-17912,2057,29960
-18168,2313,29448
-17912,2057,29448
-17656,2057,30472
-20728,521,32008
-21752,521,-32760
-18424,521,31496
-11768,2057,28680
-10488,4617,27656
19464,-18934,10760
-22520,24074,-11767
-9465,-5110,32521
-14841,9994,27914
-31481,8714,-29174
12551,-10998,-9975
-4857,24329,7689
-12536,-759,12808
-16888,-25079,12296
-18936,30473,10504
-19192,29961,13320
-20216,21513,19208
-20216,13321,23560
-18936,9481,25352
-17144,5641,24328
-17656,2569,24328
-22008,1289,26376
-26360,777,27656
-24568,-247,27655
-19448,-1015,27143
-20728,-759,27399
-23288,-1271,28423
-21240,-1015,28423
-20216,-1783,28423
-19960,-1783,27655
-22776,-1015,28423
-24568,-759,30471
-22008,-1783,30471
-17912,-1527,28679
-16120,-759,27143
-16376,265,26888
-16376,1033,28168
-16632,1289,29448
-19448,265,29448
-20472,-1015,27655
-19960,-1527,27143
-20472,-2295,28423
-20984,-2807,28935
-22264,-2295,28679
-23544,-759,28167
-20984,521,27656
-18936,9,27912
-18680,-1271,27143
-18168,-2295,25607
-18168,-1271,26631
-18680,1033,28936
-19704,2313,29192
-20984,2057,26888
-20984,1801,25352
-18680,1801,25352
-14072,4361,27656
-16376,4361,27400
-18168,4361,27144
-17656,4105,26120
-17400,3593,25864
-17400,4361,26120
-18168,5385,26632
-17144,5641,25864
-15352,5897,24584
-15352,5129,23560
-14328,6153,23560
-13304,7945,23560
-13304,8201,23816
-14328,8457,24072
-14328,8457,23816
-14584,9225,23048
-14072,10761,23304
-11256,12553,23048
-10488,13065,22792
-12536,12809,23048
-12792,12553,23048
-13048,14089,21512
-15352,13833,21768
-15608,14089,22792
-15352,14857,22792
-15096,17161,22792
-11512,18185,22536
-11000,18697,21768
-11000,19721,19976
-9464,22025,19464
-9976,22793,20232
-12536,21513,20744
-12536,21257,21512
-12792,21257,21768
-12792,21001,21000
-12792,20489,20744
-13048,21001,22280
-12536,20489,22536
-11256,18697,22280
-11768,16905,22280
-12536,16137,22536
-13816,16137,24072
-13560,15625,25352
-12792,13577,24328
-14584,10505,24328
-16888,9481,25608
-16632,10249,27912
-14840,9993,27912
-16376,8713,27656
-18680,7945,27912
-19448,7945,28936
-17912,7945,28424
-17400,6921,27400
-16632,6665,27400
-18168,6409,28680
-18936,5897,30728
-18936,5641,30472
-20984,5129,29448
-22264,4617,29448
-18936,4617,29704
-16888,4617,29960
-17912,5129,28424
-17912,5129,27912
-18680,5129,28424
-18424,4361,28680
-18424,3081,29704
-21496,2825,30472
-23800,3337,29704
-22264,3337,29704
-19448,2825,29192
-17656,2057,28168
-17912,2057,27912
-18424,3593,28936
-18936,3849,29192
-18680,2569,28680
-18424,3337,28680
-18936,3337,29960
-20728,4361,31240
-19960,5385,30984
-19192,5129,29448
-19448,3337,28424
-19960,3081,28936
-19960,3081,29192
-20728,1289,28936
-20472,1289,29192
-19704,3849,29448
-19704,5641,29704
-19960,4617,29704
-19960,2825,29704
-20984,2313,28936
-19960,2313,27144
-18680,2569,27144
-21496,2569,28680
-23544,3337,30216
-21496,5641,31240
-19704,7689,31496
-17656,8457,31240
-16888,8969,31496
-16632,10249,31752
-16632,11273,-32760
-18424,11785,-32760
-18424,11273,32008
-18936,12041,31240
-18936,13065,29704
-18168,13833,28168
-15352,14089,26632
-14840,13833,24328
-15096,13577,24328
-13560,13577,24584
-11512,13577,24328
-11000,13321,24584
-13560,11529,24584
-15352,11273,26632
-17912,11785,28680
-22776,8969,28936
-25592,4361,28168
-24056,777,26888
-19448,777,26632
-16632,2313,26376
-17144,2313,26632
-18168,2057,26888
-20216,2057,26888
-20984,1289,27144
-21240,-759,27911
-21752,-1271,28935
-20728,1033,29960
-14840,3337,28680
8,14858,21768
22024,-21238,8712
-21240,22026,-12535
-9465,-6902,31753
-9721,9738,25098
-23801,9994,-32246
17927,-4854,-13047
-3065,29193,5641
-14840,521,13065
-21752,-24055,13576
-23032,29961,11784
-21240,30217,14344
-19960,22025,18184
-17656,12553,19464
-17400,9225,22280
-18936,6153,24584
-19704,3081,24072
-19704,1545,23304
-20216,1289,23560
-20472,521,24328
-22264,-1271,26375
-24568,-2295,26631
-25592,-2295,26375
-22776,-2551,26119
-22776,-2551,26375
-19448,-2039,26119
-16632,-1527,25351
-18168,-1271,25351
-18168,-247,25607
-16120,521,26632
-17656,-247,27143
-23032,-1015,27655
-23032,-2039,27399
-21240,-2807,26887
-20984,-2551,27143
-19960,-1015,26887
-19704,-503,26631
-20472,-759,26631
-20216,-1015,26119
-19960,-1015,25607
-22008,-1015,25863
-22008,-1015,25863
-17656,-247,25863
-16376,9,25352
-16888,1545,25096
-16888,2057,25096
-18936,777,24840
-19192,265,25096
-18168,1545,24328
-17912,1801,24328
-17656,1801,23816
-16632,1545,24072
-16120,1801,24840
-17400,3593,25608
-18168,5129,25608
-17400,5385,23048
-15608,5129,22792
-15864,5385,24072
-18680,5385,24072
-18424,5385,23304
-17144,5385,23304
-14328,5385,22280
-13560,7945,22024
-17656,8713,22024
-17656,7689,21512
-13304,7945,20744
-9464,9225,19464
-11256,10761,19720
-13304,12553,20744
-13560,13065,21000
-13048,13321,20744
-13048,13833,19976
-13048,13833,19464
-12024,14601,19720
-11512,16649,19720
-9464,18441,18952
-11512,18953,18952
-13816,19209,19464
-11768,20745,19208
-9464,22281,18952
-9720,23305,18440
-10232,23561,17416
-14584,23561,17416
-14840,23561,17928
-8696,23305,17928
-6904,22281,16648
-9976,21513,16904
-12536,21257,19208
-13048,21257,21000
-13048,20489,21256
-12536,18185,21000
-12536,17161,20744
-12792,16905,22024
-14840,15369,23560
-17400,14345,25352
-18424,13065,25352
-17656,12553,23816
-16888,12809,23560
-16376,10761,24840
-16888,9481,25096
-16120,8457,25352
-15608,7433,24840
-15096,7689,24840
-16376,7945,25096
-17656,7689,25864
-17656,6921,26376
-19960,5641,26632
-20984,5129,26632
-19960,5641,26888
-20216,6153,27400
-17656,6921,27400
-15096,7689,26376
-17912,5897,24840
-20216,4617,25864
-20728,5385,27400
-20728,5385,27144
-18424,4873,26632
-16888,4873,26632
-16888,4361,26632
-18680,3849,26632
-20984,3849,26376
-20728,4361,26632
-19960,4361,27400
-25336,2825,29704
-22520,2057,27912
-20472,3081,26120
-20216,4105,26376
-19192,4361,27656
-18936,4105,27656
-18424,4361,27656
-17400,4617,25608
-16888,4361,24328
-17912,3849,25352
-19704,3081,26632
-19704,3849,26632
-18168,5129,26888
-17912,5641,27656
-19448,4617,27912
-21240,4361,27912
-21240,4105,27912
-20984,4105,27912
-23544,3849,28168
-25080,3081,28680
-23544,1801,28424
-18424,3593,26888
-14584,7945,26376
-15864,10505,27912
-17656,9993,29192
-18424,9737,29960
-17144,10761,31240
-16376,12297,31240
-16888,12297,30472
-16888,12041,29192
-16376,13577,28424
-15864,15113,28424
-15864,15881,28424
-15608,16137,27400
-14072,15113,23560
-11768,14089,20744
-11768,13065,20488
-15096,12041,23304
-18424,10761,25608
-18168,11017,25352
-16632,11529,25352
-15608,9993,25352
-19704,6665,25352
-21496,5641,25864
-19192,4617,25864
-18680,2825,26120
-19704,2313,25608
-19960,2313,24840
-20984,1545,24840
-21240,1033,25096
-21496,777,26632
-23288,265,27912
-23032,9,28168
-18424,-247,26887
-10232,3081,25352
3080,17162,19208
22536,-19702,5384
-19960,23050,-17655
-4857,-3574,27145
-11001,10762,24586
-27641,10762,-32502
15111,-7670,-13559
-5625,26121,5385
-15864,-1271,11784
-21752,-24055,11528
-22008,29449,10504
-19960,29193,13320
-20472,21769,17672
-19960,12809,17672
-19960,6921,18696
-19704,2825,21000
-17912,2825,22024
-17144,3593,22024
-18680,2057,22024
-19704,9,22024
-23032,-1271,25095
-23288,-1015,25351
-21240,-1015,23047
-21496,-1015,23047
-22008,-2039,23815
-21496,-2551,24071
-21752,-2039,23047
-22264,-2039,22791
-20728,-2295,23559
-19448,-1271,24583
-18680,-247,24583
-17912,265,24840
-18168,-503,24583
-18424,-1015,23303
-19704,-1271,23559
-21240,-503,24839
-23800,-759,25607
-24056,-1783,25351
-22520,-2807,24583
-22264,-3063,23815
-21240,-2039,23303
-19960,-1271,23303
-18936,-1527,23303
-17912,-1271,22535
-17656,-1527,22023
-20984,-759,23303
-20472,521,22792
-17656,1801,22536
-16376,3081,22280
-17656,3849,22792
-19704,4617,25352
-19960,4617,25096
-19192,4617,22792
-16120,4361,21256
-12792,3849,20488
-13816,4361,21000
-15864,5129,21000
-16120,5129,19976
-15096,6665,20488
-13560,7433,20744
-13816,7177,20488
-13816,8201,18952
-13816,8457,18696
-16120,8457,20232
-16120,9225,21000
-12792,11017,20744
-10232,13065,18696
-11512,13577,17160
-12792,14089,17928
-14072,14089,18952
-13816,14857,19208
-11512,16649,18184
-11256,17929,17928
-10232,18953,18184
-9464,19977,17928
-11000,21001,18184
-12792,22025,18184
-12280,23305,17672
-9208,23049,17160
-5112,23817,15880
-4856,25609,15112
-7416,27401,14856
-9464,27401,15112
-8952,26377,15624
-7672,26121,16392
-8696,25865,16136
-12024,25097,16904
-12792,24073,18184
-14072,22537,19208
-15096,21513,19208
-13304,20489,19208
-11256,19721,19464
-9464,19977,19720
-9208,19721,20488
-11000,18697,21000
-12024,16905,21256
-11000,15881,21768
-11000,15113,22792
-13304,13577,24072
-14840,12297,25096
-16632,10761,24584
-17656,9225,24328
-19448,8201,25096
-21240,7945,25608
-20728,7945,26120
-17912,7689,25608
-17400,7433,25096
-18936,7177,25096
-18424,6921,25352
-17144,6665,26888
-14840,7433,27144
-15864,8201,27400
-20728,6665,27400
-21496,5385,26632
-20984,5129,26632
-21752,4873,27400
-22776,5129,28168
-22776,5129,28424
-17912,4617,26632
-15352,4873,25352
-17912,5641,26632
-19192,5385,28168
-18680,5129,27400
-18680,4873,26632
-18936,4361,26376
-21752,3849,26120
-23544,4105,26376
-19704,4361,26376
-16888,4105,26632
-18424,4361,27656
-20728,4617,28424
-21240,4617,27400
-20216,4617,26120
-19448,4617,26376
-19448,4617,27400
-18424,5129,27400
-18680,5129,27656
-20216,4361,27656
-21752,3337,26888
-23800,3337,26376
-22776,4617,27400
-19448,5641,27656
-18424,5641,27144
-18680,5385,27144
-18424,5385,26888
-18168,8457,27400
-18168,8713,28424
-18168,8201,28680
-19960,8457,29448
-24824,9993,31752
-27128,11785,-32248
-22008,13065,32264
-15096,13577,28936
-14840,14345,26888
-16888,15881,26888
-16888,16649,26376
-14840,16137,24840
-14328,14857,22024
-12792,14089,20488
-10744,15113,21768
-12280,15625,23560
-16632,14345,23560
-17656,12297,23304
-17144,11785,23560
-18424,11529,25096
-18424,8969,24840
-18680,6153,23560
-19448,4105,23304
-19448,2569,23560
-20728,2569,24840
-23800,2313,25608
-20984,2313,24840
-18424,3081,24840
-18424,3081,24840
-22776,1545,24840
-24312,-247,25351
-18936,777,25608
-11256,5385,25608
776,18186,18952
19976,-18166,4872
-26360,23050,-15863
-11769,-3318,29193
-8185,15370,22282
-21497,14602,28938
18951,-4854,-16631
-2809,29961,4105
-11768,3593,9993
-19960,-22263,9736
-23544,29961,7688
-20984,30217,10248
-19192,25865,15624
-17656,16905,17416
-16376,10761,18184
-17400,6409,19208
-18424,6409,19720
-20984,5385,21256
-22520,4105,22536
-22264,1545,22536
-20216,777,22024
-19192,1801,22280
-18936,2057,22280
-19960,-247,21767
-20728,-759,21767
-21496,9,22792
-21240,521,23816
-19448,265,23816
-17912,265,23816
-18168,1033,23816
-19192,1545,23048
-22008,1033,23048
-25336,1033,25096
-22264,1033,25096
-18936,1033,23816
-19704,1801,23560
-20984,1801,23560
-20984,1289,22536
-19704,1289,22280
-18168,777,22024
-16888,1033,21512
-16888,1289,21512
-18936,1801,22024
-18936,2825,22280
-17912,2569,21000
-19704,2569,21256
-20984,2569,21768
-20216,2313,21768
-18424,3081,22280
-14840,5129,21768
-13304,5897,20744
-15352,5641,20232
-16632,5641,20488
-16632,5641,20744
-15096,6153,20744
-14584,7177,20488
-16888,7433,20232
-18424,7689,20488
-16120,8457,20744
-13816,10505,20744
-13304,11273,20488
-14840,11017,18952
-14840,9737,17160
-15096,9993,17672
-16888,9737,18952
-16376,9481,18696
-16376,9993,18440
-11000,12809,17928
-9208,13321,17160
-9976,14089,16392
-11256,15625,16392
-12792,17417,16904
-12792,17673,17416
-10488,18697,16648
-8952,21257,16136
-8440,22025,15368
-7928,21769,15624
-7928,22281,15624
-8952,23561,15368
-9464,25097,14600
-8696,26377,13576
-8440,26121,13576
-8696,25353,14088
-9208,25097,15112
-9208,25353,15112
-8952,24841,15368
-8952,24073,15368
-9720,22793,16136
-12280,21513,17416
-12280,21769,18184
-10488,21769,18184
-9720,21769,17928
-13816,17929,18440
-14840,17161,19464
-14840,15625,20232
-16376,14089,20744
-18424,12809,21256
-20216,11273,22280
-20216,11017,23048
-19960,10505,23304
-19448,9225,23304
-18680,8201,22280
-18424,7689,22280
-19192,7433,23816
-19960,7689,24328
-19704,7945,23560
-19704,6665,23048
-18424,5641,22536
-16376,5897,22536
-16376,6409,23816
-16888,6153,24584
-17144,6153,24584
-18424,5129,24328
-22008,4873,24328
-24568,4617,25352
-23544,4361,25864
-22776,3849,26120
-19448,3849,24328
-18936,4105,24328
-18936,4361,24328
-18936,4873,24328
-19448,5385,24072
-19192,4873,24072
-18936,4105,24584
-19704,3849,24840
-20472,3849,25352
-20472,5129,26120
-18936,5385,26120
-18680,4873,25864
-19448,4361,25864
-19448,4105,24840
-20472,3849,25352
-21240,3593,27144
-21240,4105,27912
-20984,3849,27400
-20984,3593,25864
-19448,3849,24840
-18424,4361,25608
-19192,4361,25352
-19192,4105,24584
-18680,3849,23560
-18168,4617,23560
-18168,6665,25608
-18424,6921,26376
-17912,7945,28168
-17144,8713,28424
-16888,9225,26376
-16376,9481,25608
-17656,9737,27656
-17656,10505,29704
-17144,11529,30472
-19704,11785,30472
-20984,12041,29704
-19704,13321,27656
-15864,15625,25864
-14072,16905,25352
-15096,16905,24584
-16120,16905,22792
-14840,15881,20744
-12024,14857,20232
-11768,14601,21512
-14072,13321,21512
-14840,12297,21512
-16120,12041,23048
-17144,10761,23816
-17400,8713,23816
-18936,7945,24072
-18936,4617,23560
-18168,3593,23048
-17912,3593,24072
-18680,4105,25096
-18424,4617,25096
-19704,5129,25096
-21240,4617,24584
-21240,1545,24584
-20472,1289,25096
-15864,3593,24840
-7672,8969,21768
6920,26122,12040
29704,-4598,-3320
-10233,-24310,-25335
1031,9995,21770
-6393,21258,20490
-28153,17418,-30966
10759,-2038,-8695
-3321,32009,8201
-10488,4361,13577
-20472,-22519,12808
-24568,32265,10504
-22520,31241,13064
-21496,21257,16648
-21496,17673,17672
-20472,7945,17672
-20216,5897,17928
-16888,5129,18184
-15608,4617,19720
-17656,4873,22024
-18936,3081,21768
-19448,521,21256
-19192,9,22024
-19704,9,22280
-20984,9,22280
-20216,265,22536
-18168,1033,22024
-17656,777,21256
-18168,521,21512
-18680,777,22024
-20984,777,23048
-22264,265,23304
-21752,521,22280
-18936,1801,22280
-16376,3337,23304
-16632,3593,23048
-17144,2569,22024
-17144,1289,21512
-18424,777,21512
-19192,1033,21768
-21240,1545,22280
-18168,1289,22024
-14840,2313,21256
-15608,3081,21256
-17656,2569,21000
-16376,2313,21000
-15352,3849,21768
-15096,4617,21768
-12792,5641,20232
-13048,5641,18696
-15096,4873,18696
-15096,5129,20488
-15096,4873,20744
-15864,4361,19976
-15864,4361,19976
-14840,5385,19208
-13048,6921,18184
-12024,7433,18440
-12280,7689,18440
-13304,7945,18184
-14072,8457,17928
-12536,10505,18184
-12280,10761,18184
-12024,10761,17416
-11256,12041,17416
-9976,13833,15112
-10232,13833,14344
-10232,14089,14344
-9464,14857,15112
-9464,15625,16648
-9208,16393,16392
-9464,16649,15624
-9464,17417,15368
-8952,19465,15624
-8184,22537,15624
-7416,24329,15624
-7416,24329,14856
-7672,23817,13064
-6904,23561,12296
-6392,23305,12040
-5368,25353,12552
-4088,28169,13320
-4856,28169,13320
-8440,26121,13320
-10744,25097,13320
-9720,25865,13576
-6392,27913,13576
-6392,28169,15112
-9976,26633,16136
-11256,25609,16392
-10232,21513,16648
-11768,19721,18440
-11512,18697,18440
-13048,17161,19464
-13816,16649,20744
-11256,16649,21000
-7672,16649,21000
-8184,15369,20488
-13304,12553,20488
-15864,10761,20744
-15864,9993,20744
-15352,9481,20744
-15096,9481,21512
-14328,9481,21768
-13560,9481,22024
-14584,9737,22792
-15864,9737,23304
-15608,8713,23304
-15352,8201,22792
-14840,8201,22792
-14584,8201,23048
-15864,7945,23304
-15864,7689,23304
-16120,7689,23304
-17144,7433,23304
-20216,7433,24328
-20216,6921,24328
-15352,6409,23304
-13816,6153,22792
-14328,6921,22536
-14328,8713,24328
-14840,8713,25352
-14840,7433,23560
-15864,7177,22280
-17912,5641,22792
-18936,4617,24072
-17400,4617,24328
-16376,4617,24328
-17912,6153,24072
-17656,6409,23304
-16120,6409,23304
-15864,6921,23560
-15864,7177,23816
-16120,7177,23304
-17656,5897,22280
-18680,4873,22024
-18680,5129,22792
-19192,5641,24328
-20472,5897,24840
-21752,4873,24840
-22008,3593,24584
-18680,4105,23304
-17144,4617,23560
-15608,5897,23816
-13816,6921,23816
-13816,8713,24840
-14072,10761,25352
-14072,11529,25864
-14584,10761,26376
-15352,10505,26376
-16376,11273,26888
-19448,11785,28168
-18680,12553,27656
-13816,14601,25096
-9720,16905,24072
-9720,18185,24072
-12536,17417,24328
-13048,16649,22536
-13304,15369,20744
-13560,14345,19464
-13816,14089,19464
-12792,14345,20232
-13816,12297,21256
-15608,12041,21512
-16632,13065,21512
-15608,10761,21512
-15096,7177,21256
-15096,6153,21512
-18936,4873,22024
-20984,3849,23304
-19704,3337,23304
-17400,2313,21768
-17144,2057,20488
-17400,3593,21256
-18168,3081,23048
-18424,2057,25864
-17656,2313,25608
-13560,3849,23560
-3832,13833,19976
14088,-27638,9224
-29432,11530,-9463
-13817,-9462,-32759
-9721,18186,20746
-19705,22282,25610
24839,12298,-24566
2311,-14838,-4599
-8441,23305,6921
-12792,-503,11016
-20216,-22263,9480
-23800,-27383,8456
-19960,31497,12296
-16120,21001,16904
-13560,12041,16648
-14584,7177,16136
-17912,5897,16136
-17912,5641,17672
-16632,3593,20232
-17144,1545,19976
-17656,1545,19464
-17912,2569,19208
-16632,2313,19464
-18680,9,20232
-20728,-503,21511
-17912,1801,21512
-15352,2825,21000
-15352,1033,20744
-17656,-247,20743
-18424,1289,21256
-15096,4361,21768
-13560,4105,21512
-16888,777,20232
-21240,-1271,19719
-21240,-1783,19975
-18168,-1015,19975
-16120,-503,20231
-17400,521,19976
-17656,1289,19976
-16632,1801,20232
-15352,2569,20488
-16376,2313,20488
-18680,2313,20744
-17912,2569,20488
-15352,2313,19720
-14584,2313,19464
-18680,2569,20232
-19960,2313,20232
-17912,3081,18952
-14584,4361,17928
-12536,4617,18184
-16632,4617,20232
-18168,4361,20488
-14584,5641,18696
-11512,7689,17672
-12024,8713,17672
-14584,8457,18440
-14584,7945,18440
-14072,7689,16648
-13560,7945,15368
-12792,8713,15624
-12280,9737,16904
-14072,10505,17928
-13816,11017,17672
-10744,13321,17672
-5368,16905,16648
-3576,18441,15368
-7160,16649,15624
-11512,15369,14856
-11512,15113,13576
-10232,14601,13576
-10232,14601,13320
-10488,16905,13064
-9208,19465,13064
-8184,20489,13320
-7928,21001,13064
-7928,22281,13064
-8952,23817,13064
-9208,26121,13576
-8440,26889,14856
-6648,26889,13832
-5624,27401,11528
-6904,27913,11784
-6648,27657,12808
-9464,25865,13064
-12024,23817,14088
-13048,23049,13832
-16376,21769,16136
-16376,21257,17160
-12024,21257,18184
-12024,21001,18440
-13048,19977,18184
-10488,19977,18440
-7928,20233,18952
-7928,17673,18952
-10488,14601,18952
-12792,12297,18952
-14328,10761,19720
-14840,11017,20744
-14840,11273,21768
-15096,10761,22536
-17144,9481,22280
-16632,8713,21000
-15608,7945,21000
