-27129,-8187,-17911
-27129,-4091,-21495
-26873,1029,-25590
-25337,6661,-29430
-24569,12549,-32758
-24057,16389,31242
-23289,16389,30986
-22265,15365,30986
-22009,-5627,-27639
-22777,-21243,-22007
-24057,26885,-15351
-25849,6917,-7671
-27385,-13563,-248
-30457,29957,7944
31240,9733,15624
27656,-5883,22023
23816,-18427,26631
19208,-27131,30215
15368,-32251,-32249
11784,29957,-29945
8968,27909,-29177
7432,27397,-28409
5896,28677,-28409
5640,31237,-29177
6408,-32251,-30457
6920,-29179,-30713
6664,-23291,-29177
5384,-15099,-26617
3848,-7163,-23033
3592,1285,-19960
4872,11013,-17144
8968,21253,-16632
11016,24837,-16376
19208,-28155,-17144
22536,-25339,-17400
22536,-26107,-14072
20744,-29691,-7672
17672,30213,776
15881,24581,7688
14089,20229,14088
13321,17157,17416
12553,14341,16648
12297,12293,12040
11785,12549,7944
10761,13829,5640
7945,15877,2568
4873,19973,-3320
2824,26373,-12280
1800,-32507,-20728
2312,-24827,-27896
4360,-16891,30216
7176,-8699,22536
11016,517,16649
13832,8709,13065
16136,14853,8969
18952,20485,5641
21000,24581,4617
20744,25093,5129
21000,26885,5897
21000,28677,5897
20744,30725,5641
20744,32005,5129
21000,-32251,4873
21000,-30715,4361
20744,-28667,3593
20744,-26619,3337
21000,-25083,3081
19976,-22779,2313
19720,-19451,1289
19720,-16891,521
19464,-14843,9
19464,-12283,-759
19719,-9979,-1783
19719,-6907,-2551
19463,-4603,-3063
19463,-1787,-4599
19719,773,-5622
20231,3333,-6902
19975,5381,-7670
19719,7173,-8182
20231,9989,-8950
20231,12805,-10486
19975,13317,-10742
20231,14853,-12022
20487,16389,-12790
20999,17669,-14070
21511,18693,-15094
21255,18949,-15606
21255,19461,-16630
21511,20485,-17398
21511,20741,-18422
21767,20741,-18934
22023,19973,-19190
22023,19205,-19446
22279,19205,-19446
22279,18437,-19446
22023,16901,-19702
22023,15877,-19702
22279,15621,-19446
23303,14341,-19190
22791,12293,-19190
22279,11269,-18422
21767,9989,-17654
21511,8197,-17654
21767,6405,-16886
21767,5125,-15350
21767,3589,-14582
22023,3333,-14582
22023,261,-13046
21767,-2299,-12023
21767,-4347,-10743
21767,-5627,-10231
22023,-7163,-9463
21767,-8955,-8183
21767,-10235,-7159
22023,-11259,-6391
22279,-12283,-5623
22535,-14331,-4855
22535,-16123,-3831
22791,-16891,-3063
23047,-18683,-2295
23047,-20987,-1271
23303,-22523,-247
23303,-23803,1033
23048,-24315,1289
23304,-25595,2057
23560,-26619,3337
23816,-28155,4361
23560,-29435,4873
23816,-30971,6153
24072,-32763,6665
24584,32005,7689
24840,32005,7433
24840,29701,7945
24840,28421,8457
24584,27141,9225
24328,26629,9225
24840,25861,9481
25096,25093,9737
25096,24581,9737
25352,23813,9481
25352,22533,9481
25096,21509,8713
25352,20997,8713
25352,20741,8457
25352,20229,8201
26120,19973,7689
26120,19461,6921
26376,19717,6409
26120,20229,6409
26632,20485,5641
26888,20485,5129
26632,20741,5129
26376,20229,4361
26376,19717,4105
26120,19461,4105
26632,19461,4361
26632,19461,4361
26632,19717,4361
26632,18437,4361
25864,17157,5129
25864,16901,5385
26120,16901,4361
26120,17157,2825
25864,17157,2825
26120,17413,4617
26120,17925,5129
25864,18181,4617
25864,17925,4361
26120,16645,5129
26376,14853,6409
25864,12549,6409
25864,12293,5641
25608,12293,4617
25608,12805,4873
25352,14085,4873
25352,14597,4105
25608,14853,4105
25608,13829,4617
25352,12549,6665
25864,12037,6921
26120,12293,6153
26120,12293,6153
25864,14341,5385
26120,15109,5385
25608,14853,5385
24840,12293,5897
24328,9733,7177
24328,8197,7945
24584,7173,7945
25096,6917,7177
25096,7173,6921
24840,8965,6409
24584,10245,6409
24584,10501,6153
24840,9989,6153
24840,10245,5897
25352,10501,5897
25608,10501,5641
25352,10501,5641
24840,10501,6409
25096,10245,6921
25096,10245,6665
24840,10501,6153
24840,10501,6153
25096,10245,6921
25096,8965,7177
24584,7941,7177
24328,7429,6665
24584,8453,6153
25096,9221,6409
25096,9733,5641
24840,9477,5641
24328,8965,6153
24584,8709,6409
24584,7429,6921
24328,7173,6665
24840,7685,6921
25352,8965,6153
25096,9733,5129
24840,9989,5129
24840,9989,5385
25096,9221,5641
25608,8197,5641
25864,7429,6153
26120,7685,7433
27144,9733,7433
27656,12037,7689
27912,13317,7689
27912,13317,8969
27912,14085,10505
28168,14853,10761
28168,15109,10249
28424,15109,9737
28936,16133,9225
29192,19717,8457
30472,22533,7433
30984,22533,5385
31496,22789,3849
32264,23557,2313
32520,23557,1033
32520,23045,-247
32007,23045,-1015
31495,23045,-1527
31239,22789,-1783
31495,23045,-2551
31495,23045,-3063
31495,23301,-2807
32263,24325,-3319
32519,25349,-3575
32263,25349,-3831
31495,23557,-2551
29959,21253,-503
28679,19205,1289
27400,17413,2569
25864,14597,4105
24840,11781,5897
24584,11269,6409
23816,7685,6921
23048,4613,7433
22536,2053,8713
22024,773,9481
21768,517,9481
21768,261,9225
22024,-251,9224
22280,-763,9736
22280,-507,9992
22536,-507,9992
22280,-763,9992
21768,-1275,9736
22280,-1531,9992
22536,-251,10504
22280,-251,10248
21512,-507,10504
21256,-1531,9480
21000,-1531,10504
23048,-1275,10760
20744,-1019,11272
22792,-507,11016
18952,-763,9480
-28408,-763,9736
14856,-1785,5896
-14330,-3065,9992
5,-3832,-2808
6147,-3832,-22520
16388,-2298,-23288
-5626,-1277,3080
-13047,-1277,-25336
17417,-2044,-2040
21256,-3068,-28664
19720,-5628,-21496
15112,-7676,-10488
13064,-8700,-9720
12296,-9468,-12280
10760,-9468,-13816
9224,-9980,-14584
7688,-10236,-14584
7432,-10236,-14584
7944,-8444,-15352
8200,-2300,-17656
8712,7428,-19447
8200,20740,-19959
5896,-30460,-18679
2568,-13564,-17655
1032,6148,-18934
3592,27652,-24054
9224,-19708,-32246
10760,-15100,30474
19208,-17404,23050
25352,24580,22538
31752,-10236,22537
-27384,21508,21257
-20984,-2044,17928
-14072,-11516,12808
-6648,-11772,7432
-248,-7676,4104
4104,-3579,3592
6664,-2043,5384
8968,-2555,8456
10760,-5115,12040
11272,-6651,14344
11784,-7163,15880
13320,-7931,16648
15112,-9211,18184
15112,-9211,18952
16136,-7163,18696
17416,-4859,17672
18952,-3067,16392
19464,-2043,15624
19464,-507,15880
20232,261,15881
21000,517,14345
21000,517,14089
21000,773,14345
21768,773,14089
22280,517,13577
22280,1029,13833
22536,1285,13321
22792,1285,12809
23304,1541,12041
24072,2309,11785
24328,2821,12041
24328,2821,11785
24840,2565,12041
25608,2565,11017
26632,2565,10505
26376,2309,10761
26120,2565,10761
27144,2565,10505
27912,2821,9993
27656,2821,9993
28168,3077,9737
28936,2821,9225
29960,3333,8713
30216,3589,8713
30216,3589,8457
30984,3333,8457
31496,3333,8457
31752,2309,8457
32008,2053,8969
-32504,2053,9225
-31480,2565,9225
-31224,3333,9225
-30968,3333,8969
-30968,3077,9481
-30712,3333,9481
-30456,3077,9993
-30456,3589,10249
-30456,4357,9993
-30200,5381,10505
-29944,5637,11017
-29944,6149,11273
-30200,7429,11273
-30712,8965,11017
-30456,9733,11017
-30712,9989,11785
-31480,11013,11785
-31736,12293,11785
-32248,12805,11529
-32504,12549,11785
32520,13573,12297
32008,14853,12553
31752,14853,12041
32008,15365,12041
31240,16389,12041
30728,17157,11785
30216,17925,12041
29960,18181,12041
29704,18181,12297
28680,18181,12297
28680,18437,12041
28680,19717,12041
28424,20229,12809
27912,20229,13065
27144,19973,13577
27400,19717,13577
27400,19717,13833
26376,19205,13833
26120,18437,12809
26376,17925,12553
25608,17413,12553
25352,16133,12809
25096,16133,13321
25096,15365,12553
25352,14853,12041
25352,15109,11273
24840,14597,11273
24584,14341,11529
24840,13829,11529
24584,13317,11017
24584,12549,10761
25096,12037,10249
25352,11269,9993
25352,11013,10249
25608,11013,9737
25608,9989,9737
25352,9733,9481
25352,9989,9481
25608,9477,9481
25608,9221,9225
25352,9221,9481
25352,9221,9481
25352,9477,9481
25096,9989,8457
25352,9733,7945
25608,9989,7945
25608,10501,8201
25352,10245,8201
25352,10245,7945
25096,10245,8969
24584,10501,9737
24072,11013,9737
24328,11269,9481
24328,11269,9225
24072,11525,9225
24072,11525,9481
24584,11781,9481
24840,11781,8713
24072,11525,8713
23048,11525,8713
23304,11525,8969
23816,11269,9225
24328,11525,9225
24328,11781,8969
24072,12037,8969
24072,12293,8969
24328,12805,8713
24584,12549,8713
24072,12549,8969
24072,12805,8969
23560,12549,8457
23304,11525,8713
23048,11013,8969
23048,11269,8969
23560,11269,8713
23304,10757,8713
23560,11013,8969
23560,11013,8969
23304,11781,8969
23304,12037,8713
24072,11525,8969
24328,11269,8457
24328,11269,8457
24328,11525,8201
25096,12037,8201
25608,12549,9737
25608,13573,9993
26376,15109,9993
27400,17413,10505
27144,17925,11273
27400,17925,12553
27400,18181,13065
27144,17925,13321
27656,18437,13321
28168,19205,12297
28680,22533,11273
29448,24837,9481
30216,26117,7945
30728,27653,6153
30472,27909,4361
30472,28165,2569
30728,27397,1545
30728,27141,1289
30472,26117,-247
30471,25861,-1271
30215,25861,-2039
30471,26373,-2551
30471,27653,-3319
30983,27653,-3575
31751,28421,-3575
31495,28165,-2807
30727,27909,-1527
28679,25861,777
27400,23557,2825
25864,21253,4105
24584,18949,5385
23048,16133,6665
21768,12805,7945
21768,11013,8457
21256,8709,8969
19976,6661,9225
19720,5381,9737
20232,5125,9993
20488,5125,9993
20232,4869,9737
20232,4357,10249
20232,3077,11529
20232,2821,11529
20488,4101,11017
20488,4613,10505
20232,3845,10249
20232,2821,10505
20488,3077,10249
20488,3333,11017
19720,3333,10761
19976,3077,11529
21000,3077,9993
19976,2821,12809
23304,2821,8713
16904,2565,13065
6664,2566,-19959
-13561,4359,9225
3845,4616,-13047
3843,4616,17673
-27132,2567,18953
7429,5,-21239
-23801,259,28937
2825,1028,26633
20745,1540,-14071
21256,1796,-25847
20488,1284,-16119
17928,4,-10231
17160,-508,-9464
16136,-3580,-9976
15112,-6652,-9464
14088,-9468,-8440
13064,-12284,-6904
13320,-14332,-5368
13064,-16124,-5112
11528,-18940,-5112
8968,-20220,-2040
7432,-19964,264
6409,-13820,8
6153,-2556,-4856
6152,13828,-13047
5896,-31740,-19447
5384,-11004,-26615
5640,9220,31498
6664,27908,24074
11528,-23292,13834
20744,-14588,522
29192,-15100,-13558
-28153,-27132,-22774
-19449,15876,-23542
-10233,-9724,-17911
-1785,-31996,-10743
3079,17925,-4855
4359,13317,-2295
8455,2821,6153
10504,1029,8969
10760,-1019,10504
10760,-3835,13320
12040,-6395,16392
14088,-7675,17672
14600,-7931,17672
14600,-8443,19208
15624,-8955,20232
17672,-7675,20232
18440,-5371,19208
18440,-2811,18696
18440,-2299,17928
20232,-1787,16648
21000,-251,16136
21000,1029,16137
20744,773,16137
21000,5,16137
21256,5,15881
22280,261,15369
22536,773,15113
22536,773,15113
22792,1029,15369
23304,517,15113
23560,261,14601
24328,773,13577
24328,1285,13321
25608,2053,13833
26120,1797,13577
25864,1797,13577
26632,1797,13577
27144,1029,13321
27400,773,13065
27656,517,12809
28936,1029,12809
29960,1285,12809
30216,1285,12553
30472,1285,13065
30984,1541,13065
31752,1285,12297
32264,1285,11785
32520,1285,12041
-32248,773,12553
-31480,1029,12809
-31224,1029,12041
-30712,1029,12041
-30712,517,12041
-29944,517,13321
-29688,261,14345
-29688,517,14089
-29432,261,14345
-29432,517,15369
-29176,517,16137
-28920,1285,16649
-28920,1797,16393
-29432,2309,16649
-29688,2565,17161
-30200,3589,17417
-30200,4613,17417
-30456,5893,17161
-30968,6917,17417
-31224,8197,16905
-31480,9733,16137
-31992,11269,15625
-32760,11781,15881
32264,12293,15881
31752,12805,16137
31240,13317,15881
30984,13061,15881
29960,13573,16649
29192,14853,17161
28936,14853,16905
28936,15109,17161
28168,15877,16649
27656,16389,16393
27400,16645,16649
27400,16901,16649
26632,16901,16905
26632,17669,16905
26376,18181,16649
26376,18181,16393
26120,18181,15369
25608,17157,14601
25864,16901,14345
25864,17925,13577
25608,18181,12809
25608,17925,12809
25864,17157,12553
25864,16645,12041
26120,16645,11529
26120,16901,11273
26120,15877,11017
26120,14341,11273
25864,13829,11273
25352,13829,11273
25096,13573,10505
25352,12805,11017
25864,11781,10761
25864,11013,11273
25352,11013,11529
24840,9989,11529
24584,8965,11529
24584,8197,12297
24584,7685,12553
24328,7429,12553
23816,6917,12297
23560,6149,12297
23560,6149,12041
23816,6661,12297
23816,6917,12809
23560,7173,12809
23560,6661,12553
23816,6661,12553
23816,6661,12809
23048,7173,12809
23048,7429,12553
23304,7429,12553
23304,7685,12809
23048,7685,11785
23048,7429,11529
22792,7941,11529
22792,8453,11529
23048,8197,11785
23048,8197,12041
22536,8453,12041
22280,8453,11785
22536,8197,11529
23048,8197,11529
23048,8197,11017
22792,8965,10761
22536,8709,10505
22536,8709,11017
22792,8709,11273
22280,8453,10761
22280,8197,9737
22536,8453,9737
22792,8709,10249
22792,9477,10761
22792,9477,11017
22792,8709,10761
23048,8709,10249
22792,8965,10505
23048,9221,10249
23048,9221,10249
23304,9477,9737
23816,9221,9993
23816,9989,10249
24072,9989,10761
24072,10501,11529
24328,11269,12041
25608,13061,12041
25864,13829,12041
26376,14341,12809
26632,15621,13833
26632,16645,15113
26632,16645,16137
26888,16389,15881
27144,17669,15625
27656,19717,13833
28424,23301,11017
29192,27397,8201
30728,31493,4873
-32760,-29179,777
-31736,-24059,-4343
-30713,-20219,-8439
-29945,-17403,-12023
-29433,-13307,-15351
-28921,-7675,-19191
-28153,-507,-23287
-27129,7173,-26870
-25849,12037,-29686
-24313,14085,-31222
-23545,8453,-30454
-24057,-5371,-25079
-24313,-11259,-22263
-25849,22277,-9975
-27897,2565,-2807
-29945,-18171,5384
32520,25605,13832
29448,5125,21512
25608,-12283,27655
21000,-26363,-32505
16904,28421,-27385
13320,22277,-24057
9736,20741,-22777
7944,19973,-22521
6920,18693,-22521
6408,18693,-22521
5640,20741,-24057
5384,23557,-25337
5896,26629,-25337
6408,32005,-23545
5896,-25083,-21753
3848,-15611,-19705
2568,-6907,-15609
2824,2053,-12280
6664,13061,-11000
11784,23557,-11256
15368,30725,-11768
16392,31493,-11512
19464,-32763,-9464
18952,31237,-5112
16648,25861,2312
14345,18437,10504
12553,12805,16648
12553,10757,19720
11785,9221,19976
11017,6149,17416
11017,5125,13576
11017,6661,8712
9225,9989,5384
4873,12549,2056
1289,16133,-4600
776,23301,-12792
1032,32261,-21496
1544,-25851,-28152
3848,-19451,30472
7688,-10491,23304
10504,-507,17160
13320,7173,13833
15368,11525,12041
17672,16133,9993
19208,19973,9737
18952,20741,9737
18440,19717,9993
18440,21253,9737
18184,23045,9481
18184,26117,9481
18184,26885,9225
18440,27909,8201
18696,30725,7433
17672,-31995,7433
17160,-30203,6665
17160,-28667,5897
17416,-25851,5129
17160,-22267,4105
17160,-19963,3337
17160,-18427,2569
17416,-16123,1545
17160,-12539,521
16648,-9723,-247
17415,-8187,-759
17159,-6139,-1783
17159,-2811,-3063
17159,-251,-4087
17927,773,-4854
17927,2565,-5622
17671,5125,-7158
17671,7941,-7926
17927,7941,-7926
18439,8709,-9206
18183,10245,-9974
18695,12549,-10998
18695,13573,-11766
18951,13061,-12790
18951,13317,-13558
19207,14341,-14070
19207,14597,-15094
19719,14085,-15350
19975,12549,-15350
19719,11781,-15094
19975,11269,-15094
19975,10501,-15606
19207,9221,-15862
19719,7685,-15862
19719,6917,-15094
19975,6149,-14582
19975,4869,-14582
19975,3077,-13558
20487,2565,-11766
20743,773,-10998
19975,-1531,-10743
19975,-3323,-10231
19975,-4347,-8951
20743,-4091,-8439
20487,-6907,-7415
20231,-8699,-6647
20743,-9979,-4343
21255,-11003,-3063
20999,-13307,-2551
20999,-15867,-2295
21255,-17403,-759
21255,-17915,521
21256,-19707,777
21256,-22267,1033
21256,-24059,2569
21000,-24315,4105
21512,-25339,5129
21256,-26619,5129
21512,-28411,5897
21512,-28923,7433
21512,-29947,7945
21512,-32507,7945
21768,31749,8713
21512,30725,9737
22024,30213,11017
22024,29189,11785
22024,27397,11785
22280,26885,12553
22280,27141,13065
22280,24581,13065
22536,23045,13065
23048,22277,13833
23304,21765,13577
23304,20229,13577
23048,19205,13577
23560,18437,13833
23816,18181,13065
23816,17669,12553
23560,16645,12553
23560,15877,12553
23816,15877,12297
23816,15877,11529
23560,15365,10505
23816,14853,10761
23816,14085,10761
23816,14085,10505
24072,14341,10249
24072,14341,9737
24072,14085,8457
23816,14341,7945
23816,13573,8457
24072,13061,8713
23816,13061,8457
23816,13317,8457
24072,12293,8457
24072,12037,8713
23816,12037,8713
23816,12293,8713
23560,11781,8457
23560,11781,8457
23304,11013,8201
23560,10757,8457
23560,11525,8969
23560,11781,8713
23816,12037,8201
23816,12037,8457
23816,11781,8457
24072,11781,8713
24072,11525,8969
24328,11525,8969
24072,11269,8969
24328,11525,8457
24328,11013,8201
23304,10501,8457
23560,10245,8969
23560,10245,8457
23816,10501,8201
24072,10757,8201
24584,11269,8201
24584,11269,8201
24840,11269,8969
23816,11525,8457
23816,10757,8201
24072,10757,8201
24072,11013,8201
23816,11013,8457
23816,10501,7945
24072,9989,7689
24072,10245,7689
24072,10757,7689
23816,10501,8457
24072,10245,8201
24072,9733,8457
23816,9733,8201
24072,9989,7945
23560,10245,7945
23560,9989,7689
23816,9989,8713
24072,9989,8713
24072,9221,8457
23816,9221,8201
23816,9477,8713
23816,9989,8713
23560,9989,8457
24072,9733,8201
23816,9477,8201
24072,9477,8457
24072,9477,8201
23560,10245,8201
23304,10245,8201
23816,9989,8457
24072,9733,8457
24328,9477,8457
23816,9477,8201
23304,9221,8201
23560,9733,8457
24072,10245,8457
24328,10501,8713
24584,10245,8713
25096,10757,8457
25608,11525,8969
26120,13829,8969
26376,14853,9993
27400,15621,11017
27656,16901,11529
27400,17413,13065
27400,17413,14345
27144,17669,14601
27144,18181,14089
28424,20485,11529
29192,22277,9481
29448,23813,8457
29704,26117,6409
31240,27397,4617
32264,27653,3081
31496,27141,2313
30984,27397,1801
30728,26629,777
30472,25093,-247
30215,25349,-503
30215,25349,-759
29959,25605,-2039
30983,26629,-2807
31751,27141,-2295
30727,27397,-1527
29959,26629,-503
29703,24837,1545
28168,23301,3337
26120,21765,5129
24328,19205,6665
23304,15365,7433
23048,12549,8457
21512,10501,8713
20744,9733,9225
19976,5637,10249
20232,4357,10249
20232,4613,11017
19720,4613,11273
19464,4101,11785
19976,3077,11785
20744,2821,12041
20744,2821,12041
19976,2565,12297
19208,1285,12041
19208,1285,12297
19464,1541,12297
19720,1285,11785
19720,1285,12041
19976,1285,12297
19464,1541,12809
20232,1541,11785
17928,1541,13321
21768,1797,12297
14344,1797,13833
-13560,1797,-1015
-29945,6151,-23031
8965,7688,-15607
3843,7688,12553
7684,7432,26121
-24828,5,13577
-21497,-1789,24328
-3575,-253,-30712
19209,-508,-6648
19720,-2300,-24824
19976,-4604,-16120
16392,-6140,-7928
12552,-6908,-7928
10248,-8188,-9464
9736,-9212,-10744
9224,-9468,-11000
6920,-8956,-10744
5640,-8956,-10488
6664,-8956,-11000
8456,-4604,-12792
8712,4356,-13815
5896,17412,-14071
2056,30980,-12791
-1016,-18173,-12279
-3832,1795,-13814
-3832,24067,-18678
776,-21244,-27126
7688,-10492,30474
14344,-11260,24842
15624,-13308,23306
26376,2052,18954
-30712,32004,17161
-21752,6404,13833
-14584,-6652,10248
-7672,-8956,7432
-1272,-6140,4360
4104,-2299,3336
6664,-1019,5896
7176,-1531,10760
8200,-5371,14088
10504,-7419,16648
11016,-7419,17928
11016,-7419,18952
12040,-9467,19976
13832,-9723,20488
15368,-7419,20744
15368,-4347,19976
15880,-2299,18952
17672,-2555,17416
18696,-1531,17160
18696,517,17161
18696,773,16393
19464,5,15369
20744,5,15369
20744,261,15625
20744,517,15625
21000,773,15369
22024,773,15369
22536,773,15113
22280,517,15113
22024,773,14601
22792,773,14345
23816,517,14089
23816,773,14089
24072,1029,13833
24584,1029,13321
25864,773,13065
26376,517,12809
26632,1029,12297
26888,1285,12553
27912,1285,12553
28424,773,12553
28168,5,12297
28680,5,12297
29704,517,11785
30472,773,12041
30728,261,11529
31240,-507,11272
32264,-507,11272
32520,-251,11528
-32504,5,11785
-32248,5,11785
-31224,261,12041
-30712,261,12041
-30968,5,11785
-31224,5,12041
-30456,261,12553
-29944,261,13833
-29944,773,13833
-29688,1541,13833
-29944,2053,14089
-29688,3077,14601
-30200,4357,14601
-30968,5637,14345
-30968,6661,14601
-30968,7941,14857
-31224,9221,15369
-31992,9989,15625
32520,10757,15113
32520,11525,14857
32520,12805,14857
31752,13573,15113
30728,14597,15113
30728,15109,14857
31240,15621,14345
30984,16901,14601
30472,17413,15113
28936,17413,15369
28680,17157,15369
28936,17157,15625
28680,17925,15881
27400,19461,16393
27144,19717,16649
27144,19205,16137
27144,18437,15625
26632,18181,15881
25864,18181,15881
26120,18437,15881
26120,18949,14601
25864,18181,14089
26120,18181,14345
25096,18181,14345
25096,17413,13321
24840,17413,13065
25096,17157,13065
25608,16645,12809
25864,16133,12809
25864,15365,12553
25608,15365,12297
25608,15109,12297
25352,13573,12041
26376,13061,12041
26632,12293,11785
26120,12037,11785
25864,12037,11529
26120,11525,11529
26120,10757,11785
25608,10245,11529
25352,9733,11785
25096,8709,12553
26120,8709,12297
26376,8453,12297
26120,8453,12553
25352,8709,12553
25352,8197,12297
25608,7941,12809
25608,7941,13577
25608,7941,13321
25352,8197,12297
24840,8453,12297
24584,7941,12553
24840,7685,12553
24840,7685,12297
24584,8453,12041
24072,8453,12041
24072,8197,12041
24328,8453,12041
24328,9733,11785
24072,10501,11529
24072,10501,11529
24328,10501,11529
24328,10757,10761
24072,10757,10505
24072,10501,10761
24328,11013,11017
24328,11269,10761
24072,10757,10249
24072,9989,9993
24328,9989,9993
24328,11269,9993
24072,12293,9737
24584,11781,9993
24328,11013,9993
24328,11013,9737
24328,11269,9737
24072,11269,9481
23816,11269,9481
23816,11013,9225
24072,11525,8969
24072,12293,8969
23816,12549,8457
24328,12037,8457
25096,11781,8713
25352,12805,9481
25864,14085,9993
26376,14341,9993
27656,14853,10249
27912,16389,11017
27912,17669,11785
28424,18949,12809
28680,19205,13065
28680,19717,14089
28936,19973,14601
28424,20485,14345
28424,21253,12809
29704,23301,10505
30728,25605,9225
30984,27909,7433
30984,29189,4873
30984,29701,3081
31496,29701,2825
32520,29701,2057
32264,28677,265
31240,27397,-1271
30983,27397,-1527
31495,27909,-1527
31751,28677,-1527
31751,29189,-2551
32007,29957,-3063
32007,29701,-2807
32263,29701,-1271
31239,27397,521
28680,24837,2057
27656,23301,4105
26376,21509,6665
25352,18693,7433
23816,15365,7433
22536,13317,8457
22280,11781,9993
22536,9477,10249
21512,7173,10249
20744,6405,10249
20744,6149,10249
20488,5637,11273
21000,4613,11529
21256,3845,11529
21000,3845,11273
21000,3589,11273
21256,3077,11529
21256,3333,11529
21000,3333,11273
21000,3589,11529
21256,3589,11529
21256,3333,11273
21256,3333,11273
21000,3589,12297
21000,3589,10505
21000,3333,13577
24584,3589,8201
20488,3589,15369
25352,5126,28425
-5113,7943,-13559
1796,7944,-8695
6147,7944,29193
17924,5383,-22775
-20731,1028,9225
-19960,1027,-29687
12553,2052,21001
23049,3076,-17399
23816,2820,-24311
22536,1796,-13559
19720,-1020,-8184
17416,-3068,-8184
15624,-5372,-8184
15624,-6396,-8440
13832,-9212,-6392
13064,-11260,-5112
12552,-12028,-4344
12040,-15100,-3832
9992,-18428,-2296
7176,-19452,8
4873,-15868,1800
4361,-6652,520
4617,7172,-4855
3848,26116,-12023
1800,-18940,-18679
1800,2308,-25334
2824,21764,-31734
5128,-27644,26378
12552,-16380,15114
21768,-12796,1802
30984,-22012,-9206
-25337,25348,-16118
-15865,-1020,-16119
-6905,-26108,-11511
263,22277,-6135
4871,11269,-1271
7431,5125,3337
9992,2309,7177
10760,1797,7945
11016,-2043,12296
11272,-4859,15112
12808,-6651,16648
15112,-7675,17928
15368,-8187,18696
15368,-8955,19976
16648,-8955,19976
18440,-7419,19464
19208,-4859,18952
19464,-2555,17416
20232,-1531,16648
21256,-1019,16136
21512,261,15881
21512,1285,15369
21768,1541,15369
23304,1541,15113
24328,1797,15369
24072,2309,14345
24072,2565,14089
24584,2821,14345
25352,2309,14345
25864,2053,13833
25608,2053,13577
25352,1797,13577
25864,1285,13321
26632,1541,12809
27400,1797,12809
27912,1797,12553
27912,2053,12297
29192,1541,12297
29448,1285,12297
29448,773,12041
29448,-251,11784
30472,-251,11784
31496,-251,11528
31752,-507,11272
32264,5,11785
-31992,517,12041
-30968,261,11529
-31224,261,10761
-30712,517,10505
-29944,517,11529
-28920,517,12297
-28664,-251,12296
-28664,5,12297
-27896,5,12553
-27384,5,13321
-27128,261,14345
-27384,517,14601
-27384,517,14601
-27384,261,15113
-27896,261,15881
-28152,1541,15881
-27896,2309,15881
-28408,2821,16137
-29432,3845,16393
-29688,5125,16393
-30200,6149,15881
-30456,7685,15881
-30712,8965,15625
-30968,9989,15881
-30968,11269,15881
-31480,12037,15881
-31736,13573,15625
-32760,14085,15881
31496,14341,15881
31496,14085,15625
30728,14341,16137
30216,15365,16905
30216,16645,17161
29960,17413,16649
29448,17413,16137
28680,17669,16393
28424,18181,16649
28424,18437,16649
28424,19205,16393
27912,19205,15881
27656,19461,15625
27656,19717,15625
27912,19205,14345
27144,18693,13321
27144,18437,13065
27400,18437,13065
27400,18181,12297
27144,18181,12041
27144,18693,11785
27144,18437,11273
27912,17925,11529
27400,16901,11017
26632,15109,11017
26632,14597,11273
26888,14853,11017
26632,13573,10761
26632,13061,10761
26632,13061,11017
26888,12805,11017
26888,11013,11017
26632,9989,11273
25864,9477,12041
25864,9221,12553
25864,7941,12809
25864,7429,12553
26120,7173,12553
26120,7173,12553
25864,7429,12809
25608,7173,12809
25608,7173,12553
25608,6661,12553
25608,6917,12297
25096,6917,12297
25096,6917,12809
25096,7685,12553
25352,8197,12297
25352,8453,11785
24584,8453,11017
24584,8197,11017
24840,8197,11017
24840,8197,11273
25096,8453,11273
25096,8453,11017
24840,8197,11017
24584,7941,10761
24584,8453,10761
24584,8965,11017
24328,9221,11017
24840,9733,10505
25096,9221,9737
25096,9221,9737
24328,9221,9737
24328,9477,9737
24328,10245,9737
24584,10245,9481
24840,10245,9225
23816,10245,9225
23816,9989,9737
24584,9733,9481
25096,9733,9737
25096,9477,9481
24328,9477,8969
24328,9733,8969
24584,9733,8969
25096,9989,9225
24840,9989,9225
24840,10757,8969
25352,10757,8457
25608,10501,8713
25608,10501,8713
25864,11525,8457
26888,12805,9737
27144,13317,10249
27912,14597,10761
27912,15877,11273
28680,17413,11529
29192,18181,13065
28936,18693,13833
29448,20229,13577
29960,22533,12041
31240,26629,8969
32520,30725,5385
-31736,-28667,1033
-29688,-21755,-3319
-27897,-16635,-8439
-26617,-12027,-12791
-25849,-6907,-16375
-25593,-507,-20727
-24569,6661,-24822
-24057,11525,-29174
-24057,13317,-31990
-23289,11269,-31734
-22265,1541,-29174
-22009,-14075,-24567
-21753,-31483,-17911
-21753,17157,-11255
-21753,-1531,-5368
-22009,-8187,-3832
-27129,23045,9480
-31480,3589,19208
29704,-11515,26375
25096,-23547,31495
19976,32517,-29433
15112,27653,-25593
12552,25861,-24057
10760,24837,-24057
8968,24837,-24313
7688,24837,-24313
6920,26373,-25593
7176,29189,-28153
6664,32517,-27897
5896,-27643,-25593
5640,-19963,-22265
5128,-11259,-18681
4872,-2299,-15097
5640,7173,-12536
9992,18693,-11512
16136,27653,-11768
19976,31493,-11768
21512,31749,-10232
21256,30213,-7160
21000,26629,-504
20744,24325,1544
16905,14341,14088
14601,9733,19208
14857,6917,21256
14857,5637,19464
14089,5125,14856
13065,5893,9736
12041,7941,5640
8969,10245,2056
4361,12549,-2552
1032,17669,-9464
520,25093,-16888
1288,-31227,-24824
3336,-23035,-31992
5896,-14331,26888
10248,-4347,21768
14088,4101,17929
16392,9989,14089
17928,14341,10761
19976,18181,9993
21000,20997,10249
21000,22021,10249
20744,22533,10249
20232,23557,9481
20232,25861,9481
20488,25861,9225
19464,28165,8201
18696,31493,7689
19208,-30459,6921
19464,-27643,6921
19464,-26363,6153
19464,-24571,4873
18696,-20731,4361
18696,-17659,3593
18952,-16123,2313
18952,-14075,1545
18696,-10747,1033
18696,-7931,-247
18439,-6139,-1015
18439,-4347,-2039
18951,-1275,-2807
20231,2053,-3318
20231,3589,-4342
20231,5125,-5366
19975,7429,-5878
20487,10245,-7158
20999,11781,-8182
20999,12037,-9462
20231,11781,-9974
19719,12293,-10742
19463,12549,-11254
20487,12549,-12022
20999,12805,-12790
20743,12805,-13558
20999,13061,-13558
21255,13061,-13814
21767,11269,-14582
22023,10245,-14582
21767,10501,-14326
22279,10245,-14838
23303,9989,-14838
23047,7685,-14070
22535,5381,-13558
22791,4613,-13814
22791,3845,-14070
23047,2053,-14070
23047,5,-13814
22791,-1275,-12791
23047,-1275,-11767
23047,-2555,-10999
23303,-5115,-10487
23303,-6907,-8951
23815,-8443,-7159
24071,-10235,-6647
24071,-12283,-6135
23815,-13051,-5879
23815,-15611,-4343
24071,-18171,-3831
24071,-20475,-3575
24071,-22779,-2551
24327,-23547,-1271
24583,-23803,-503
25095,-25339,-247
24839,-27387,521
24840,-28411,1801
25096,-29435,3081
25608,-31739,3081
25352,32005,3337
25352,31237,4873
25352,30725,5897
25608,29189,6153
25608,27141,6665
25352,25605,7177
25608,25093,8713
25608,24325,8969
25352,22021,9481
25352,20741,10505
25864,19717,11785
25608,18437,11785
25352,16901,11785
24840,16133,11529
24840,14597,11529
25096,14085,11785
25096,13061,11785
25352,12293,11529
24840,11269,11529
24840,11013,11529
24584,9989,11017
24840,8965,10505
25352,9221,10505
25096,9221,10505
24584,8709,11529
24840,7941,11273
24328,6917,11017
24072,6661,10505
24072,6661,9993
24328,6405,9737
24328,6149,9481
24072,5893,8713
24072,5893,8713
24328,6149,8457
24328,5637,8457
24072,5637,8969
24072,5125,9225
24328,5125,9225
24328,5125,8457
24072,5125,8457
23560,4613,8713
23816,4613,8713
23816,4357,8713
23816,4613,8457
23304,3845,8457
23304,3589,8713
23304,3077,8969
23304,2821,8713
23560,3333,8457
23816,3333,8713
23304,3589,8713
23048,3589,8457
23560,3589,8457
23560,3333,8713
23304,3333,8713
23048,3333,8457
23560,3589,8201
23304,3589,8201
23560,3589,8201
23560,3589,7945
23560,3333,7945
23304,3845,7945
23048,4101,8201
23560,4101,8201
23560,3845,7945
23560,2821,8201
23304,2565,8201
23304,3077,7945
23048,3333,7433
23048,3589,7689
23304,3333,7689
23560,3077,8201
23816,3077,8969
23816,2821,8713
23560,3333,7945
23560,3333,7433
23560,3333,7433
23304,3589,7689
23304,3333,7689
23560,2821,7945
23560,3077,7945
23304,3333,7689
23304,3333,7689
23560,2821,8457
23560,2565,8457
23304,2821,8457
23304,3333,8201
23304,3589,8201
23560,3077,8457
23560,2821,8969
23304,3077,8969
23560,3589,8457
23560,3589,7945
23304,3333,7689
24328,3589,8201
24584,4101,8457
24584,4357,8457
24584,4357,8713
24840,4613,8713
25864,6149,8457
26632,7941,8457
26632,8965,9993
27400,9989,11785
27656,10757,12041
27656,11781,12553
27656,11781,13065
27656,11781,13065
28424,12549,12041
28936,14853,9737
29704,18181,7945
30216,19717,6921
30472,20229,5129
30728,21253,3081
30728,22021,2313
30984,20997,1033
30728,19461,521
30216,18693,-759
29703,18693,-2039
29959,18949,-2551
29959,19205,-2295
30215,19973,-2807
30727,21253,-3319
30727,21509,-3575
30471,20997,-2295
29447,19717,-1015
28167,18949,777
27400,17157,3081
25352,13317,5129
23560,9221,6921
22024,7173,7689
21768,5381,8201
21000,2565,8457
20232,5,9481
19720,-507,9992
19464,-763,10248
19720,-1275,9992
19720,-2299,10504
19464,-3067,10760
19464,-3067,10760
19720,-3579,11016
19720,-4091,11016
19464,-4859,11272
19464,-4603,11272
19208,-4603,11016
19208,-4603,11272
18952,-4859,11784
18952,-5115,12040
18952,-5115,12040
18696,-5115,12040
19208,-5371,9736
17672,-5371,11784
22024,-4347,10248
15368,-4091,12040
-8440,-3579,-8440
-23289,775,32265
6149,1800,-9975
3075,2056,14601
-14844,-761,6664
31237,-6395,22024
-22521,-7165,23304
-2807,-5629,31496
19465,-5884,-9720
18952,-8444,-25336
18696,-9724,-25336
13576,-12796,-8952
12040,-13308,-8952
9480,-14076,-9464
7688,-14844,-9720
6920,-14332,-11256
6408,-14332,-11768
5640,-14588,-11256
5640,-14332,-11768
5896,-9724,-13304
6408,772,-15095
5128,14340,-14839
1544,27652,-12791
-3320,-21757,-11767
-5880,-1277,-14327
-3576,21507,-20726
1032,-26108,-28406
6664,-18172,29194
13064,-19196,23306
20232,25604,19722
27144,-9980,18441
-31224,20484,17161
-23288,-3836,14088
-15352,-14332,9224
-8696,-15100,5896
-6904,-15612,5128
1800,-9467,4360
4360,-6907,6152
6408,-7675,9480
7176,-11515,14088
8456,-13307,16904
9480,-13563,17928
10248,-14075,18696
11272,-15355,20232
11784,-16123,20488
13064,-13563,19976
14600,-9723,18952
15624,-7931,18184
16392,-8187,17928
16648,-8187,17416
17416,-6651,16904
17416,-5883,16648
17672,-6395,16392
18184,-6651,16392
18440,-6651,16648
18952,-6651,16392
19208,-6395,16392
19464,-5883,15624
19976,-5883,14600
20744,-5371,14344
20744,-5115,14856
21768,-4859,15624
21768,-5115,14344
22024,-4859,13320
22024,-5883,12808
22280,-6651,12808
23816,-5883,13064
24072,-6139,13064
24072,-5883,12552
24584,-5883,12296
25352,-6139,12552
26376,-5115,13064
26632,-5371,12808
26632,-6395,12296
26888,-7419,12040
27656,-7675,11784
28168,-7675,11784
28424,-7419,12040
28936,-7419,11784
29704,-7675,11784
30472,-7675,12296
30472,-7931,12040
31240,-7931,12296
31752,-7675,12808
31752,-7675,13832
32008,-7931,14088
32008,-7931,13832
31496,-7931,13320
31240,-7675,13064
31496,-6907,13576
31496,-5371,14600
31240,-4859,15112
31240,-4603,15368
31240,-3067,15368
30984,-2043,15112
30216,-1531,15112
30216,-1019,15368
29960,5,15369
29448,1285,15113
29448,2053,15113
28424,2821,15113
28168,3589,15113
27912,4613,14601
27656,5637,14345
27144,5381,15113
26376,5381,15625
26376,6661,15881
25864,7429,15625
25096,7429,15625
24840,7685,15881
24840,7941,16137
24328,7941,16393
23560,8197,16393
23048,8197,16393
23048,8197,16393
22792,8453,16905
22536,7941,16905
22536,7685,16137
22792,7429,15625
22536,7685,15881
22024,7173,15881
21768,6405,15369
21768,5381,14089
21768,5381,13833
21512,5125,13833
21512,4869,13577
21768,4357,13833
21768,3333,13321
21512,2821,13321
21512,2053,13577
21512,1541,13577
21768,773,13321
21768,-251,13064
21512,-1019,13064
21768,-1019,13320
21768,-1275,13320
21512,-2299,13832
21768,-3323,13576
22280,-3835,13832
22024,-4091,13320
22024,-4603,13064
21512,-4603,13320
21768,-4859,13320
21768,-4347,13576
22024,-4091,14088
22024,-4091,14600
21512,-4347,14600
21768,-4347,13832
21000,-4347,13576
21000,-4603,13576
21000,-4859,13576
20744,-4859,13320
20744,-4603,13576
20744,-4347,13320
20488,-4347,12808
20488,-4347,12808
20232,-4347,13064
20232,-3579,13064
20488,-2811,12808
20488,-3067,12296
20232,-3579,12552
19976,-3323,12552
20232,-2811,12808
20744,-2043,12808
20232,-2299,12552
19976,-2555,12040
19464,-3067,11784
19720,-2811,11784
19720,-2043,12040
19976,-1787,12040
19976,-1787,12296
20232,-2043,12040
20232,-2043,11016
19976,-1787,11016
19976,-1275,11272
19976,-1275,11016
20744,-1531,10760
20744,-1275,10504
21000,-763,11016
21000,-1019,11784
21000,-1275,12040
21768,-251,12040
22792,1797,12553
23048,2565,13321
23560,3333,14345
23816,3589,14601
23816,5381,15113
23560,5637,16649
23560,5893,17417
23816,6405,17417
24328,7685,16649
24840,9477,14089
25608,10501,11785
25608,12293,9737
26120,14085,8201
27144,15621,6409
27656,15621,5385
27912,15365,4361
27656,15365,3337
27144,14597,1545
26888,13573,777
26888,13829,777
26888,14341,265
27400,14853,265
27656,15365,9
27912,16645,9
27912,16645,777
26376,14853,2057
25096,12805,3593
23304,10245,5641
22792,9989,6409
21000,6405,8969
19208,2821,9993
18440,261,9993
17928,-1531,10504
17160,-3067,11784
16904,-5115,12808
16904,-6395,12552
17160,-6651,12808
17160,-6907,13320
16392,-7419,13576
16392,-8699,13320
16136,-9211,12552
16136,-9211,12552
15880,-9467,13320
15880,-9467,13832
15880,-9723,13576
16648,-9723,13064
16392,-9467,13064
15880,-9979,13576
15624,-9979,13832
15880,-10235,14856
17160,-10491,12808
15368,-10491,15624
18440,-10235,12040
17928,-10491,9224
3848,-8954,-19192
-11769,-4601,8968
4869,-5624,-9464
5123,-6392,24072
-24828,-8185,22024
6405,-11771,-19192
-32761,-11773,-29432
-1527,-12029,28168
18441,-11772,-13304
19720,-10492,-25080
18696,-10492,-14840
15880,-11516,-7672
14856,-14076,-7416
14344,-16636,-8952
12552,-18940,-8440
10504,-21756,-5880
10248,-24572,-3576
10504,-26876,-3064
9992,-29180,-3576
7688,-31484,-2296
4104,31492,1288
1801,31748,3592
1289,-28412,3592
9,-16892,-248
-504,-12797,-1784
8,18948,-15607
8,-25084,-24823
-760,-5117,-30711
-1016,11779,30474
3080,25348,21514
11272,-31484,7946
21768,-30204,-5878
30983,25860,-14838
-25337,5892,-17654
-16121,-18684,-14839
-6649,24836,-8951
-761,7684,-1783
1543,-3579,4872
3848,-9211,8456
5896,-12283,10248
6664,-14331,13576
6920,-16635,15880
7432,-18939,17928
9736,-20475,18952
11272,-20475,20232
11528,-20987,21512
11272,-21499,21768
12296,-20731,21256
13576,-18171,20488
14088,-16891,20488
15368,-14331,18952
15880,-13819,17672
16904,-12027,17160
17160,-11771,17160
17160,-11771,17416
17672,-11515,17160
18440,-11515,17160
18952,-11259,16648
18696,-11515,15880
18696,-11771,15112
19976,-11771,15112
20744,-10491,15368
20744,-10235,15368
20488,-10235,14856
21512,-10235,14600
22792,-9979,14600
22536,-9979,14856
22792,-10235,14856
23304,-10747,14088
23816,-10747,13320
24584,-10491,13320
24840,-10491,13832
25352,-10747,14088
26120,-10235,14600
26632,-9979,14856
27144,-10491,14344
27656,-10747,13576
28424,-10747,13064
29192,-10747,12808
29192,-11003,12808
29448,-12027,13320
29448,-12283,14088
30216,-12539,14344
30984,-12795,14600
31240,-12795,14600
31496,-13051,15368
31496,-13051,16136
32264,-12795,17160
32264,-12795,17160
32520,-12283,17672
32520,-11515,17672
32264,-11515,18440
32264,-10747,18696
32520,-10491,18696
32264,-8955,19208
31496,-7675,19464
30984,-7163,19464
30728,-6907,19720
30472,-5115,19464
30472,-4091,19464
29704,-3579,19208
29192,-3067,19464
28936,-1787,18440
28168,-251,17928
27656,5,18185
26888,5,18441
26888,1541,18953
26632,2821,18697
25864,3077,18697
25096,3077,18953
25096,3077,19465
24328,3845,19209
23560,4357,19209
23048,4613,18953
23304,4357,18441
22792,5381,18185
22536,5125,18185
21768,5381,17673
21768,5381,16393
21768,5381,15625
21768,5637,15625
21768,5637,15881
21512,5893,15881
21768,5893,14345
21768,5637,14089
21512,5125,13577
21000,4869,13321
21256,4869,13321
21256,3845,12297
21000,3077,12553
21000,2565,12553
21256,2309,12809
21512,1285,12297
21512,773,11785
21768,261,11785
21000,-507,12296
21000,-1531,13064
21256,-1787,13064
21256,-2299,13320
21256,-2811,13320
21000,-3579,13576
21000,-3835,13576
21256,-4603,14344
21256,-4859,14344
21000,-5371,14088
20488,-5627,13576
20232,-5627,13320
20232,-5371,13320
20488,-5371,13576
20488,-5627,13576
20232,-5115,13320
19464,-4859,13320
19464,-5371,13576
19464,-5883,13576
19720,-5627,13832
19720,-4603,13576
19464,-4091,13576
19464,-4347,13576
19464,-4347,13320
19208,-4603,13320
19464,-4347,12808
19464,-3323,12552
19208,-3579,12040
19208,-3579,11272
19464,-3579,11528
19464,-3323,12040
18952,-3579,12296
18952,-3579,12296
18696,-3579,12040
18696,-3579,11272
18440,-3323,11272
18696,-3323,11784
19208,-3067,11528
19464,-2811,11272
19464,-2811,10760
19208,-4091,10248
19208,-4091,10248
18952,-4091,10504
19208,-3579,10760
19208,-3067,10760
19208,-2555,10504
19208,-1787,10504
18952,-2299,10248
19464,-2299,10504
20232,-2555,11016
20488,-1787,11016
20488,-251,11784
21256,517,12041
22280,1029,12041
22024,2053,12041
22536,3845,13321
22792,4869,14345
23560,4869,14857
23560,5381,15113
23560,7685,15369
23816,9989,14089
24840,12293,11529
26632,16389,7177
28168,23045,3081
28424,25605,2057
31240,-30971,-5879
32519,-27899,-10487
-32249,-24059,-14071
-31993,-17915,-16631
-31481,-12539,-20471
-30713,-7419,-25079
-29689,-2811,-28407
-29177,-2299,-29431
-28665,-7675,-28407
-28409,-19963,-24567
-27897,30469,-19191
-27897,14853,-12535
-28409,-3067,-6392
-30201,-23035,264
-32760,22021,7688
28936,1029,15880
25096,-15355,23047
20744,-29691,27911
15880,25093,32263
10760,17413,-28665
7176,13061,-25081
4360,10245,-23801
1800,8965,-23545
8,9477,-23289
8,10757,-23289
520,15109,-24825
520,18181,-24569
520,22533,-24313
-248,30468,-21753
-2040,-26108,-17657
-3576,-18940,-14073
-2808,-10492,-11769
1288,5,-10744
5896,9989,-9976
10504,16389,-9976
14600,19717,-9976
15880,19973,-8952
15368,16389,-3320
13064,10501,5640
10249,3589,13576
8713,-1531,18695
7945,-4603,21767
6921,-7419,22279
5897,-9723,18695
5641,-9211,13063
5897,-6139,8455
3849,-3323,5383
-1271,-764,1799
-5367,3588,-5880
-5368,6148,-8952
-5368,17924,-20984
-4088,25604,-27384
-1528,-32508,31240
2568,-23291,23560
5896,-13819,18696
8456,-6907,15880
10504,-1787,12808
13064,2821,10761
14344,5893,11017
14344,6661,12297
13832,6661,12041
14088,8197,11273
13832,10245,11273
13832,11525,11273
13064,11781,10249
12552,13573,9225
12808,16645,9225
12808,19205,8969
12552,20485,8969
12552,22021,8457
12296,25093,7689
12040,27653,7177
12040,29189,5897
12040,32005,4617
11784,-31739,4105
11784,-25595,3337
11784,-23035,2057
12552,-21243,521
12552,-18171,-247
12295,-15099,-1271
12295,-13563,-1783
12551,-12539,-2551
12807,-10747,-3575
12807,-9467,-4087
13063,-8187,-4599
12551,-8187,-5623
12295,-6395,-6647
12551,-3579,-6903
13831,-2811,-7159
14599,-2555,-8439
14599,-2555,-9719
14343,-2811,-10231
14343,-2299,-10487
14599,-2555,-10999
14599,-3323,-11511
14343,-4347,-11767
14343,-4347,-11767
15111,-4603,-11511
15623,-6139,-11511
15623,-6395,-11255
15367,-7419,-11511
15111,-7931,-11255
15111,-9723,-10743
15367,-12539,-10999
15367,-14331,-10487
15623,-15099,-9719
15623,-16635,-8183
15623,-19451,-6903
15367,-20731,-6647
15623,-22011,-5879
15879,-23035,-4343
15879,-25083,-3063
15879,-26619,-2551
16135,-28155,-1271
16135,-30715,-503
15879,32261,521
15880,31237,1289
16136,29701,2569
15880,28421,3337
16648,26885,3849
17160,25349,4617
16904,24581,5129
16904,23557,5897
17160,21253,7177
17160,20229,7689
17160,19205,8713
17928,18693,9737
17928,16901,11273
18184,14853,11273
18184,13061,12041
17928,11781,12809
17928,9989,13833
17928,8453,14345
18696,7941,14089
18696,7429,14601
18440,6149,15113
18440,4101,15881
18696,2821,16137
19208,2565,16649
19208,1541,16649
18952,517,16905
18952,261,16905
19208,5,15881
19208,-763,15624
18952,-2299,15624
18440,-3835,15368
18696,-4091,15112
19208,-4603,14600
19464,-5371,14600
19464,-5883,14344
19208,-5883,14088
19464,-5883,14344
19464,-6139,13832
19208,-6651,13320
19208,-7419,13576
19464,-7419,13576
18952,-7163,13320
18696,-6907,13064
18696,-7419,13064
18696,-8443,12808
18952,-8187,12808
18952,-7931,12552
18696,-6907,12808
18696,-7163,12296
18696,-8699,12552
18440,-9979,13064
18696,-10747,13576
18696,-11515,14088
18952,-11771,14344
18952,-11771,13832
18696,-10747,13320
18952,-9211,13320
19464,-9467,13064
19208,-10235,13320
19464,-10235,13832
19208,-10235,13832
19464,-10235,13832
18952,-10235,12808
18952,-10235,12552
19208,-9979,13064
18952,-9723,13576
19464,-10235,13320
19720,-11771,12040
19464,-11771,11528
19208,-10747,11784
19464,-10747,12808
19464,-11003,12808
19208,-11515,12808
18952,-11771,13064
18952,-11259,13320
19208,-10491,13320
19720,-10491,12552
19720,-10747,12552
19464,-10747,12808
19464,-11003,12808
19720,-11003,12296
19464,-10747,12296
19464,-10747,13064
19464,-10747,13576
19720,-11515,13576
19464,-12027,11528
19464,-11515,11016
19464,-11259,11784
20232,-11515,12296
20232,-11515,12552
20232,-11259,12808
19976,-10747,12808
19720,-10747,13064
19720,-10491,13064
19976,-9723,12808
19976,-9979,12552
19720,-10235,12296
19720,-11003,12296
19464,-11003,12296
19464,-10491,12296
19720,-9723,12040
19976,-9723,12040
20488,-9979,12040
20232,-11003,11784
20232,-10491,12040
20488,-9723,12552
21000,-9467,12552
21256,-10491,12808
21256,-10747,12808
21000,-10747,12808
21000,-9979,11528
22024,-9211,11784
22280,-8443,13064
23304,-6907,15112
24072,-5627,15368
24072,-5115,15624
24328,-4347,17160
24584,-3323,18696
24840,-2299,18696
24840,-2299,17672
25096,-1531,15880
25608,1285,14089
25864,4101,12041
26888,5893,9993
28168,6661,8713
28168,6917,8201
28168,7173,7433
28424,7173,6921
28424,6149,5129
27912,4869,4105
27400,4357,2825
27400,4357,2313
27144,4613,2057
28424,5125,3081
28936,5893,3849
28936,7429,4617
27912,7429,4617
26632,5893,4873
25608,4357,5641
23816,2053,7433
22536,-763,9992
21512,-3067,12040
20232,-6395,12552
19464,-8699,12552
18696,-11515,13064
17928,-13563,14856
17928,-14587,15368
17928,-15611,15112
17416,-16635,15112
17416,-17403,15112
17672,-17403,15368
17672,-17659,15368
17672,-17915,15368
16904,-18939,15112
16648,-18939,15112
16648,-18683,16136
16904,-19195,16136
16904,-19451,16392
17160,-19451,16392
17160,-19195,16136
17160,-18683,15624
17160,-18939,16136
18440,-18939,14856
16136,-18939,17160
19720,-18171,15112
13064,-17659,17928
-12536,-17915,2824
-27384,-16889,-28664
6149,-16632,-13816
2563,-16632,18696
-11516,-18937,8456
30213,-20987,25352
-23033,-20733,26120
-4343,-19965,-30200
17161,-19964,-6648
17928,-21244,-23800
15880,-23804,-13816
11784,-25340,-6392
9992,-25852,-6392
7176,-26876,-7416
5128,-28668,-7928
4360,-28668,-9208
3336,-28412,-9208
2312,-28668,-8184
2056,-28668,-7928
2312,-21244,-11000
2056,-10748,-13048
-1272,2563,-12791
-4600,18179,-11767
-6904,-29181,-11511
-7416,-7421,-14071
-4856,15619,-19702
264,32260,-28406
6408,-26876,29706
12552,30212,28426
17928,3844,29450
24328,32260,30217
32264,-1276,29704
-25080,-23036,24840
-17912,-30716,18184
-10744,-30716,12808
-4344,-26620,9992
520,-22779,8968
3080,-20987,9992
4360,-23035,13064
5896,-25595,17160
7432,-26875,19976
8200,-27899,20232
8200,-30203,21256
8968,-31739,22536
11528,-30459,23560
12552,-27131,22536
13320,-24315,20744
14088,-23035,20232
15624,-23035,19720
16136,-20731,19976
15880,-19195,18952
15880,-19707,18184
16392,-20219,18184
17160,-20219,18440
17672,-19963,17928
17416,-19451,17416
17928,-19451,16904
18952,-18683,16648
19720,-17915,16392
19720,-17915,15880
19464,-18171,16136
19720,-19195,15880
21000,-18939,15880
21768,-18939,15624
21768,-19195,16136
21512,-18939,15624
22024,-18939,14344
23048,-18939,14088
23304,-19195,14088
23048,-19195,14088
23816,-19195,14600
25096,-19451,14856
25352,-19451,14856
25352,-19707,14600
25352,-19963,14600
26632,-19963,14856
27656,-20219,13832
27656,-19963,13064
28168,-19451,13320
28936,-19195,13576
29960,-19195,14088
29960,-19195,14088
30216,-18939,14344
30472,-19195,14344
30984,-19195,14088
30728,-19195,14088
30984,-19195,14088
30984,-17403,14344
31240,-15867,14600
31752,-15355,14600
32008,-14843,15368
31496,-13563,15368
31240,-12283,15624
31240,-12283,15624
30728,-11771,15880
30472,-11003,15880
29448,-9979,15624
28936,-9467,16136
28680,-8699,16392
28424,-6907,16392
28680,-4347,15880
27400,-2811,15624
26888,-2811,15368
26888,-2299,15368
26888,-763,15880
26120,-251,16136
25352,-507,16136
25352,-507,15880
25352,-251,16136
24072,1285,16905
23816,1285,16649
23304,1029,16905
23560,1541,16905
23304,2565,16905
22792,3333,16649
23048,3333,17161
23048,3077,17417
22536,2309,17417
21768,2309,17417
22024,2309,16137
22024,2053,15369
21768,2053,15369
21000,2053,15369
21000,773,15113
20744,517,14857
20744,517,14857
21256,-251,14856
21512,-1275,14856
21256,-1787,14344
21256,-2043,13832
21256,-2555,13064
21256,-4091,13064
21256,-5371,13832
21256,-5627,13576
21256,-5627,13064
22024,-6651,13064
22024,-6907,12808
22024,-7163,12808
21768,-6651,12808
21768,-6395,12552
21512,-6651,12808
22024,-6907,13064
21768,-7163,13320
21768,-7163,12808
21768,-7419,11272
22024,-7419,11528
22024,-8187,12552
21768,-8443,13064
21768,-7419,13320
22280,-5883,13576
22536,-5627,13576
22536,-5627,13320
21768,-5371,12808
20744,-5883,11528
21000,-5883,11272
21000,-6139,12296
20488,-5371,12552
20232,-5115,12552
20232,-4603,11784
20488,-4859,11528
20488,-5115,12040
20232,-3835,12296
20744,-2811,12040
21000,-2811,11528
21000,-3579,11784
21000,-3835,12040
20744,-3835,12040
20232,-4347,11016
19976,-4603,10760
19720,-4603,11016
20744,-4347,11272
20488,-4347,11528
19976,-4603,11528
20232,-4091,11272
19976,-3835,10504
19976,-3835,10504
20488,-3835,10760
20744,-3835,10504
21000,-4091,10504
21000,-3323,10760
21000,-2299,10760
22024,-2043,11528
22792,-507,12040
23560,1541,12041
24072,2821,12553
23816,2821,13577
23560,3333,14601
24072,4101,15113
24072,4101,15113
23816,4357,15369
23816,5637,14345
24840,7941,12041
26376,10757,10761
26120,11269,10761
25864,13061,7433
27144,14341,5385
28168,15621,4105
28168,15365,3593
27144,14597,3081
26632,13573,1289
26888,13317,265
27144,13829,-503
27399,14341,-503
27399,15365,-247
27911,16645,-759
27655,16645,-1015
27399,15621,-759
25863,14085,265
24584,12037,2057
23560,9733,4105
23048,7941,6665
22024,5637,8713
19976,3077,9481
18952,517,9481
18952,-1531,10504
18184,-3835,11272
17416,-5627,11272
17160,-6395,11272
17160,-6395,11528
17416,-6907,13064
17160,-7163,12808
16648,-8187,12808
16904,-8443,12808
16904,-8443,13064
16904,-8699,13064
16648,-8699,12808
16904,-8443,12040
16904,-9211,11272
16392,-9211,10504
16392,-9211,11272
16648,-9467,11528
16392,-9467,12296
17160,-9723,12040
16136,-9723,14600
21000,-9467,10248
13832,-9467,15624
-504,-8443,-11512
-18425,-6137,13576
3077,-6136,-12536
3075,-6648,20488
-26876,-8185,21000
8197,-10491,-20472
-24569,-10493,30216
-29943,-9981,-19192
17417,-9724,-11512
18184,-8956,-23288
17928,-8700,-14328
15880,-9724,-8952
14600,-11772,-8696
12808,-14588,-8696
11528,-17404,-8952
11272,-20476,-8184
9992,-23036,-5112
9224,-25852,-2040
8968,-28412,-2040
8456,-30204,-3064
5640,-31484,-248
1032,-32252,3848
-759,-28925,3848
-247,-18941,-1784
776,-2812,-10232
1032,16132,-17399
1032,-28668,-24823
1032,-8188,-32759
2312,10756,25098
6408,26116,16650
13320,-28924,4618
22280,-25340,-10230
25351,-25084,-15606
-24825,17412,-24822
-15865,-7164,-19959
-7673,-31996,-13303
-1273,13828,-6647
2311,1797,1289
4360,-5115,7688
5896,-9979,10248
7176,-12539,11528
7432,-14075,13320
8200,-16635,16904
9224,-18939,18440
10760,-20219,18440
11784,-19963,18696
11784,-19963,19976
12040,-19451,21000
13576,-18171,20232
15368,-15099,18952
16136,-12027,18184
16648,-11771,18184
16904,-11771,17160
17416,-11003,16136
18440,-9723,15880
18184,-9467,15880
18184,-9979,15624
18952,-10235,15112
19720,-9723,14600
19464,-8955,14600
19464,-8955,14856
20488,-9211,14344
21256,-9211,13576
21256,-9211,13576
21000,-8955,13832
22024,-8955,13576
23048,-8955,12808
23048,-8699,12552
23304,-8699,12552
24328,-8443,12552
25096,-8443,12296
25608,-8187,11272
26120,-7931,11016
27400,-7931,11528
28168,-7931,11784
28168,-8187,12296
28424,-8187,12040
28680,-8443,11528
29192,-8443,11784
30472,-8443,12040
30472,-9211,12040
30472,-9723,12040
30216,-9979,12296
31240,-11003,12808
32264,-11259,12808
32008,-11259,13576
32264,-10747,14344
-32504,-10747,14344
-31992,-9723,14600
-32248,-9467,15112
-32760,-9723,15624
32520,-10235,16136
32520,-10491,16648
-32760,-8955,17160
32520,-7675,17416
32008,-7675,17416
31240,-6907,16904
31240,-4859,16136
30984,-2555,16648
30728,-2299,16904
30216,-2043,16904
29960,-251,17160
29704,1029,17161
28680,1029,16905
28168,1285,16649
27912,2565,16649
27656,3589,16905
27144,3845,17417
26632,4101,17673
26120,4613,16905
25352,5381,17161
24584,6149,16905
24584,6149,16905
24584,6661,17161
24328,7429,16905
23560,7941,16905
23304,7941,16393
22792,7685,16137
22536,7685,15881
22024,7941,15881
22024,8453,14857
22024,8197,13577
22536,8197,13065
22792,8453,12809
22536,8453,12297
22536,7941,11529
22280,7685,11017
22536,7173,11017
22536,6917,10249
22280,6661,9737
22792,6149,9481
22792,6405,9225
22536,6405,9225
22536,4613,9225
22536,3845,8457
22280,3333,8969
22024,3077,9993
22024,2053,10761
22792,1285,10761
22792,773,9993
22280,5,9737
21512,-507,9992
21512,-1019,9992
21768,-1019,9992
21768,-1275,10248
21512,-1531,10504
21512,-507,10504
21256,-251,10760
21768,5,11785
21768,-251,11784
21512,-507,11784
21512,-1019,12040
21512,-1275,11272
21256,-1275,11272
21256,-763,11528
21000,5,11017
21256,261,10761
21256,261,10761
21000,261,11529
21000,517,11273
21256,1285,10249
21000,1285,10249
21000,1541,10249
21000,1285,9993
21256,1285,9993
21000,1541,9737
21256,1285,9737
22024,1797,9993
22280,2053,9737
21256,2053,9225
20488,1797,8969
20744,1285,8969
21000,1541,8457
21000,2053,8713
21256,2565,8713
21768,2821,8969
22024,2821,8969
22024,3589,8969
22280,3589,8713
22280,3589,8969
21768,2821,8969
21768,2565,9225
21512,2565,9225
21768,3077,8713
22024,3589,8457
22792,4357,8457
23560,5381,9481
24328,6917,10249
25352,8197,10249
26120,8965,10505
26120,9733,10761
25608,9733,11017
25096,9989,11785
25352,10245,12809
25352,10757,12809
25608,12293,12553
26632,15365,10505
27912,18181,6921
29448,21509,3593
29960,26117,521
31496,31237,-3319
-32761,-30715,-8183
-31737,-27643,-12279
-31225,-24059,-15351
-31225,-20987,-18679
-30969,-16891,-22263
-29945,-10235,-26103
-29433,-7419,-26871
-26873,4101,-30454
-25337,5893,-31734
-24825,-507,-30199
-25081,-13819,-25335
-26105,-30203,-18423
-28153,17157,-11767
-30457,-2043,-5624
-32249,-22267,1544
31496,23045,9480
28168,1797,16392
24328,-16891,22023
20744,-31227,27399
17160,25093,32519
12808,18949,-29177
8456,15109,-27897
5640,13829,-26361
4104,14085,-24825
2568,14853,-24825
1288,16133,-25337
1544,18437,-26361
2056,22277,-26617
2056,26373,-25337
776,-32251,-23801
-504,-24572,-21241
-1016,-21756,-20473
8,-7419,-14585
3336,2053,-12792
8712,12805,-12536
13576,20997,-14072
16648,25093,-14072
17672,25093,-11768
17416,21765,-6904
15368,16645,1288
12553,9989,8968
9993,5125,14600
8713,1285,17928
8201,-251,17927
7689,-507,14343
7433,-507,9735
6153,5,5384
3593,2309,2568
265,5381,-2040
-3576,9220,-8952
-3832,16644,-16376
-2808,25604,-24568
-1016,-31228,-31992
2056,-23291,25608
5384,-14331,19208
8968,-5627,14600
9992,-2811,13576
14344,6405,8201
16648,9733,6409
17672,12549,6665
17416,14853,7177
17416,16133,7433
17416,17413,6665
17672,18693,5641
17416,21253,5641
17160,21765,5897
17160,22789,5897
17160,25093,4873
16904,27397,4105
16648,29957,4105
16648,32517,3337
16648,-30203,2313
16392,-26875,2057
15880,-24827,1545
15624,-23291,9
15624,-20475,-1783
15879,-17147,-2807
15879,-14331,-3319
16135,-12283,-3575
16135,-10747,-4599
15879,-8443,-6391
16391,-7419,-6391
16391,-5627,-7927
16391,-4347,-8695
16391,-1787,-9719
16647,773,-10486
17159,1797,-10998
18183,3077,-12534
18439,4357,-13814
17927,5637,-14070
17671,5893,-14326
17671,6149,-15350
18183,6661,-16630
18439,7941,-17398
18695,7173,-17654
18695,5125,-18166
18695,4101,-18422
18439,3333,-18422
18695,3077,-18166
19463,1797,-18422
19463,517,-18678
18951,-507,-18679
19207,-2043,-17911
19463,-2811,-16631
19463,-3323,-16119
19975,-5115,-16119
20231,-6139,-15863
20231,-8443,-14071
20487,-9723,-13047
20487,-11259,-13047
20231,-13563,-13047
20231,-14331,-11767
20487,-15867,-10231
20487,-18171,-8951
20743,-19707,-8439
20743,-21755,-7415
21511,-23035,-5623
21511,-24571,-4855
21255,-26107,-4855
21767,-28155,-5111
22023,-29179,-4087
21767,-29947,-3575
21767,-31483,-2807
21767,-32507,-2807
22023,30981,-1783
22023,29445,-759
22535,28677,-759
22791,27653,9
23048,27141,1801
23048,25349,3337
23304,22789,4105
23304,21509,4105
23304,18949,5129
23048,17925,6153
23048,17157,6921
23048,16645,6409
23816,15365,6153
23816,14853,6409
23560,14085,6921
23304,13829,6921
23816,13061,6921
24328,11013,7689
23816,8709,8201
22792,6405,8457
22536,5381,8457
22536,5125,7689
23816,6149,7433
24328,6661,6921
24328,6661,6409
23816,6149,6153
24072,4869,6153
24072,4101,6409
23816,4101,5897
23560,4101,5641
24072,3845,4617
23816,3333,4361
24072,3077,4361
23816,2821,4361
23560,2821,4617
23048,2565,5129
23560,2565,5385
23816,2309,4873
23560,1541,4105
23560,1029,4105
23816,1029,4617
23816,1029,5129
24072,1285,4873
23560,1541,4617
22792,1541,3593
22792,1285,3593
23304,773,4105
23816,773,4873
24072,517,4361
23560,773,4105
23304,1285,4361
23304,517,4361
23048,517,4873
23048,773,5641
23048,261,5129
22792,5,4361
22792,-251,3336
23048,-251,3592
23560,-251,3592
23304,-251,3592
23304,5,3849
23560,1029,3593
24072,1797,3593
24072,1797,3593
23816,1541,3849
24072,1541,4105
24328,1541,4105
23816,773,3849
23816,517,4361
24072,5,4617
24072,5,4361
24072,-251,3848
23560,-251,3080
23304,1029,2825
23816,1797,3081
24072,1797,3337
24072,1541,3337
24072,2053,3593
24072,1797,4105
24072,1797,4361
23816,1541,4105
24328,1029,3337
24584,1285,3337
24584,1285,3337
24584,1029,4105
24328,1029,4105
24328,1029,4361
24584,1285,4105
24328,2053,3849
24584,2053,3849
23560,2053,3593
23560,1285,2825
23816,1285,2313
24328,1797,2569
24584,2565,2313
24840,2309,2825
24840,2309,3849
25352,2565,4105
25608,2821,4105
26120,2565,4105
26120,2821,4105
26376,4613,4361
26888,6149,4873
27400,7685,5641
28424,8965,6153
28680,9477,6665
27912,9733,7689
27912,10245,7945
28424,11269,7433
29448,12293,6665
29704,13829,4873
29960,16389,3081
30984,19205,1545
31496,20485,-503
32263,21253,-2551
32263,21253,-3575
32263,21253,-4087
32007,20229,-4599
32007,18949,-5879
31751,18693,-6135
31751,19717,-6903
31495,20485,-7415
31751,20229,-7415
31495,20229,-7159
31751,20741,-6135
32007,20741,-4087
30727,19717,-3063
28679,17413,-2807
27143,13829,-2039
26375,11525,-503
24839,9221,1289
23816,6149,1801
23560,4869,2057
22792,2053,4105
22280,773,5129
22024,-507,5384
21768,-1531,5640
21768,-1531,6152
21512,-1531,5896
21512,-1787,5896
21768,-2555,6408
21768,-2811,6664
21768,-3067,6408
21768,-3323,6664
22024,-3835,6664
21768,-4091,6408
21256,-4091,6408
21256,-3323,6408
21768,-3323,5896
22024,-3323,6920
22280,-4347,6152
19720,-4603,7176
24328,-4603,4616
19208,-4347,6152
-9976,-4091,-8184
-29433,-4601,-27896
5125,-5112,-13048
2307,-5368,-22776
-11005,-6137,-2296
-24572,-6395,9992
-17145,-5885,14088
-1783,-5373,28168
21769,-5116,-13048
21256,-5116,-30968
19464,-7164,-23544
16648,-9724,-15608
16392,-10748,-13816
14088,-11260,-15096
12040,-13052,-16376
11784,-14588,-16632
11272,-14844,-15864
10504,-15612,-14328
8456,-17148,-14328
8200,-17404,-15864
8968,-12540,-16120
8968,-2812,-16376
7944,10756,-17911
5128,26884,-21495
3080,-19196,-25079
2824,2308,-28150
4616,25348,30730
8200,-23036,21002
10248,-18940,18442
21000,-18684,9226
27656,27652,4618
-30968,-5884,1801
-22008,27140,9
-14072,3844,265
-7416,-5372,264
-1016,-6396,-1528
3591,-6139,-2808
7175,-5883,-1272
8199,-5627,3592
8968,-7163,6408
10504,-9723,8456
12040,-11771,10760
13320,-12027,13064
13576,-12027,14856
14600,-13051,14856
15112,-13307,14344
16392,-12027,13832
17160,-8699,12552
18184,-6139,11528
19464,-5883,11272
20488,-6139,11016
20744,-5371,11016
20744,-4347,11272
20488,-4603,11272
20744,-5115,11016
21512,-4859,10760
22024,-4347,9224
22024,-4091,8712
22536,-3835,8968
23304,-3835,8968
23304,-4091,8712
23304,-4091,8712
23816,-4091,8456
24584,-3579,7432
25352,-3323,7432
25352,-2811,7688
25608,-3067,7432
26376,-3323,7176
27656,-3323,7176
27656,-4091,7432
27656,-4347,7432
27912,-4603,7176
28936,-5115,6664
29448,-5371,6152
29192,-5371,6408
30216,-5115,6408
31496,-4603,6408
31496,-4859,5896
31240,-4859,5640
32008,-5115,6664
-32504,-5371,7176
-32248,-5883,6920
-31736,-6395,5896
-31736,-6651,6152
-30712,-5883,6408
-30456,-4603,6920
-30456,-3579,7432
-30712,-3579,7688
-30200,-3579,8200
-29944,-3067,9224
-29944,-2299,9736
-30200,-2043,9736
-30200,-1019,9992
-30200,1029,10249
-30456,2309,10249
-31224,2565,10249
-32248,2821,9737
-32248,4357,8969
-32504,5637,8969
-32504,6149,9737
32264,6405,10249
31752,7429,9993
31752,8709,10249
31496,8709,9993
30728,9221,9993
30472,9989,10505
29960,11525,10249
29960,12805,9993
29192,12805,10505
27912,13061,10761
27912,13317,10761
27656,13573,10761
26888,13573,11017
27144,13317,11273
26632,13061,10249
26376,13061,9993
26120,13573,10505
25608,13317,10761
25864,13061,10505
25864,13061,9737
25864,13061,9225
25608,12805,9481
25096,12293,8457
25096,12293,7945
24840,12037,7689
24584,11781,7689
24584,11269,6921
24840,11269,6153
24840,11013,5641
25096,10757,5897
25352,9477,5897
25352,8709,6153
25352,7173,6665
25096,5893,6409
24584,4869,6409
24840,4869,6153
25352,4357,6153
25352,4357,5897
25608,4101,5897
25608,4101,5897
25352,3333,6153
25608,3077,6665
25608,2565,6409
25352,2053,6409
25352,2309,6665
24584,2309,6665
24328,1541,5897
24328,1541,5897
24328,1541,6409
24584,2565,6665
24584,3077,6665
24840,3333,6921
24584,3333,6921
24584,4101,7177
25096,5381,6921
24840,4613,6665
24328,4101,6153
23560,3589,5385
23560,3845,5385
23560,4101,5385
23816,5125,5641
23816,5637,5897
24072,5893,5641
23816,5893,5641
23304,5125,5897
23560,5125,6921
23560,5125,6409
23816,4869,5385
23560,4613,5129
22536,5125,5129
22792,5381,5129
23816,5381,5129
23560,5125,5129
23304,5125,5129
23304,6149,5897
23304,6149,6153
23048,5893,6153
23304,5381,5129
23304,5125,4361
22536,4869,4105
22536,5125,4361
23048,5125,4361
23560,5125,4361
24328,5893,4617
24072,6917,4873
24072,7173,5385
25352,8197,5641
26120,9733,5385
26376,11781,6409
26632,12549,7689
27144,12549,8201
27144,12805,8201
26888,13317,8969
26888,14341,8969
27144,14597,7689
27144,15621,6153
28424,17669,3593
28936,20229,1801
29448,21765,777
30216,22533,-1015
30983,23557,-3063
30983,23301,-4087
30471,22021,-4087
29703,21509,-4343
29703,19973,-5367
30471,20229,-5879
30471,21253,-5623
30215,22789,-5879
30727,24069,-6903
31239,24069,-6903
30983,22789,-5879
29191,21765,-4087
26887,19205,-2807
25863,16133,-2039
25607,13829,9
23816,11781,2569
22280,9221,3081
21768,6661,3337
22024,4613,4361
21000,2309,5897
19464,1029,5897
19720,517,6153
19976,261,6153
20232,5,6153
20232,-507,6920
20232,-507,6920
20488,-763,7176
20488,-1275,7176
20744,-1531,7432
20232,-2043,7432
19720,-2299,7432
19464,-2811,7688
19720,-2811,7176
19720,-2555,7176
19464,-2299,7432
20488,-2299,8456
20488,-2043,7176
18952,-2043,9480
20232,-2555,4104
15624,-2555,14088
26632,-2554,18952
-3577,-2553,-25848
1284,-3064,-19704
6147,-2808,21256
25348,-3833,31240
-18427,-4604,2568
-28920,-3837,-28152
6665,-2812,16648
21001,-1788,-22008
22024,-1532,-28152
18952,-3068,-18424
16136,-4348,-13304
16392,-6908,-14072
16904,-7932,-15096
14344,-12540,-14840
13064,-15612,-13304
11784,-18172,-10744
12040,-20732,-8952
12040,-23292,-8952
9480,-25596,-8696
6664,-26876,-4856
5128,-26364,-2296
4616,-21244,-3320
4360,-8700,-9976
4360,7428,-17143
4616,26884,-24823
4872,-17916,-32503
4872,2052,25610
6408,20228,18698
10760,-29948,9226
19208,-22012,-4086
28935,-19964,-17910
-28409,-29180,-26614
-19961,16388,-26358
-10489,-9212,-20983
-2297,-32508,-15351
2567,14597,-8439
4615,3589,-1527
6151,261,521
9224,-5627,5640
9992,-6907,7432
9992,-8699,10760
10760,-11771,13576
13320,-13307,14088
14088,-14075,14088
13576,-14587,15880
13832,-15611,16648
14856,-15611,16648
16392,-13051,15368
17160,-9467,14600
17672,-7163,13832
18696,-7163,12552
19464,-7163,11784
19720,-5883,11784
19720,-5883,12040
19464,-5627,11528
20744,-5371,11784
21256,-5371,11272
21256,-5371,10504
21512,-5115,10504
22280,-4859,10504
22280,-4859,10760
23048,-4859,10504
23560,-4603,10504
23560,-4603,9480
24072,-4603,9480
24328,-4347,9224
25352,-3579,9992
26120,-3579,9992
26120,-3835,9992
26888,-4347,9224
27400,-4347,8456
27912,-4091,8200
28424,-4347,8712
28680,-4603,8968
29704,-4603,8968
30216,-5371,8968
30472,-6395,9736
30728,-6395,9736
31240,-6139,9736
31752,-5883,8968
32008,-6651,9224
-32504,-7163,9224
-32504,-6395,9992
-31736,-6139,10504
-31736,-6139,10504
-31992,-6395,10248
-31224,-7419,11784
-30712,-7675,12296
-30712,-7163,13320
-30712,-6907,13576
-30968,-6651,14088
-31224,-5883,14856
-31224,-5371,14856
-31480,-3835,14856
-31480,-3067,14600
-31992,-2299,14856
-32504,-1531,14600
32520,517,14601
32008,1285,14601
31496,2053,14345
30984,3333,14345
30728,4869,14601
30216,5381,14857
29448,5893,15369
28680,5637,15369
28424,6917,14857
27912,7941,14089
27656,7685,14089
26632,8197,14345
26120,8709,14601
25864,9477,14601
25864,9733,14601
25608,9733,14857
25608,11269,14857
25352,12037,14857
24840,12037,14089
24072,11525,12553
23560,10757,11529
23304,11013,11529
23304,11525,11529
24072,12037,11785
24072,12037,11529
24328,12037,9993
24072,12037,9481
24072,11781,9737
23560,11013,8969
23304,9733,7689
23048,9477,7433
23048,9477,7433
23048,9221,7689
23304,9221,7689
23816,9221,6921
23816,7685,7177
23560,6405,7177
23304,6405,7177
23048,5637,7177
22792,4357,7177
23304,4357,7945
23304,4613,9737
23304,4613,9993
23048,3333,8457
22792,2053,7689
22792,1797,7689
22024,1797,7689
22024,1029,8457
22536,1029,9737
23304,1285,11017
23048,1541,11017
22536,1541,9993
21768,1797,9737
21512,1029,9481
21512,1029,9481
21768,1285,9737
21768,1285,9225
21512,1285,8969
21512,1541,9225
21768,1541,9225
21512,1541,9225
21768,2053,9481
21256,2821,9225
21000,2565,8713
21256,3077,8201
21256,3077,8457
21256,3333,7945
21512,3333,7689
21512,3589,7689
21256,3077,7945
21512,3333,7945
21512,3589,7689
21512,3589,7689
21256,3845,8201
21512,3077,8201
21256,2565,7433
21256,3589,7433
21000,4101,7689
21512,4357,7945
21768,4357,7945
21512,3589,7945
21000,3589,7433
21256,3589,6409
21000,3589,6665
21000,3845,6665
21512,4101,7433
21512,4101,6921
21768,4613,6921
22792,5381,7689
23816,6917,8457
24072,7173,8969
24328,8965,8969
24584,9733,8969
25096,10757,9737
25096,11013,10505
25352,11013,11529
25352,12293,12809
25096,13573,12809
25864,15365,11529
26888,17669,8713
28168,22021,5385
29704,27141,2057
30984,32517,-1783
-32761,-28923,-6903
-31481,-24827,-11511
-30713,-20219,-15351
-30201,-16379,-18679
-29945,-11515,-22007
-29177,-4859,-26871
-28153,2821,-31478
-27385,8197,31498
-25849,9221,30730
-24057,3077,31754
-24057,-10747,-28663
-25593,-29179,-21239
-26361,30725,-18423
-28409,-3323,-6392
-30969,-23547,1544
31752,20997,10248
27656,5,18440
24072,-17659,25351
19976,-30971,29959
15624,24325,-30457
10760,18949,-26873
7432,16389,-26361
5896,15621,-26361
4616,15109,-26361
2824,14853,-25593
2568,15109,-25337
3080,17925,-26361
3336,21509,-26873
2824,26629,-26873
2056,-31483,-25081
776,-22267,-22265
264,-13307,-19193
776,-3835,-16121
4104,7429,-14584
9224,17925,-14840
14344,25093,-14840
17160,27909,-14072
17416,27909,-13560
16648,23557,-6904
14600,18437,264
11273,11525,7944
8201,4357,13832
7177,1285,17416
6921,-251,17927
6921,-1787,15111
6665,-2555,11527
6921,-763,7943
4873,2821,4104
1289,6405,-1016
-1528,11524,-8440
-2040,17668,-17144
-2040,26628,-25848
-504,-30460,32520
2312,-23547,25864
5896,-15355,20232
8968,-6139,14856
10760,1285,11017
13320,6149,8457
16136,9221,7177
16904,12293,7177
16904,14341,6921
16904,14597,6921
17160,14597,7177
17160,17157,7177
16392,19717,6409
15880,20741,5385
15880,21509,5129
15624,23813,5129
15624,26373,4361
15368,28421,2825
15368,30213,2057
15368,-32507,1801
15368,-28667,2057
15368,-26363,1289
15624,-24571,-503
15367,-22011,-1783
15367,-18427,-2295
15367,-15355,-3319
15623,-13819,-4599
15623,-11515,-4855
15367,-7931,-5111
15367,-5883,-6391
15367,-4859,-8439
15623,-3067,-9463
16391,-507,-10231
16903,1541,-11254
17159,2053,-12278
17159,2309,-13046
16903,4357,-13814
17159,5381,-14582
17159,5637,-15606
16903,5893,-16374
16903,6405,-16374
17415,6661,-16630
17671,6661,-17142
17927,5893,-17910
17927,5125,-18422
17927,4101,-18422
18183,3333,-17910
18183,2821,-18166
18439,1797,-17654
18439,773,-17398
18695,-507,-17399
18695,-2043,-17655
18439,-2299,-17143
18439,-3067,-15351
19207,-4859,-14839
19719,-6395,-14583
19463,-7931,-14583
19719,-9979,-13047
18695,-11771,-11255
18439,-13563,-10487
18951,-14075,-10487
19207,-16891,-9207
19207,-18171,-7415
18951,-19707,-6135
19207,-20987,-5623
19207,-22779,-5367
18951,-24571,-4087
18951,-25595,-3063
19975,-26875,-2039
20231,-28155,-1527
20487,-29947,-503
19719,-31483,265
19464,-32763,265
19464,31493,1289
20232,30469,2569
20744,28677,4105
20488,27141,5385
20488,26629,5897
20488,25605,6665
20744,23813,7177
20488,22277,7177
19976,21765,7433
19976,20485,7945
20232,19461,9225
20744,18437,9993
21000,18181,9993
21256,16389,10505
21512,15109,11017
21512,14341,11273
21512,13829,11529
21256,12549,11529
21512,11269,10505
21512,10757,9737
21256,11013,9737
21768,11013,9481
22280,11269,8713
22024,10757,8201
22024,9477,7689
22280,9221,7689
22280,9733,6921
22024,9477,6665
22024,8965,6665
22024,8965,6921
23048,8453,6665
23304,8197,6153
23304,7941,6153
22536,7941,6409
22536,8453,5897
22536,8197,5129
22536,7941,4873
22280,7941,4873
22024,8197,4361
22536,7429,4105
22792,7429,4105
22536,7429,4105
22536,7685,4873
22536,7941,4873
22792,7685,4617
22792,7173,4873
22536,6661,4873
22536,6917,4617
22536,7173,4617
22280,7173,5385
22280,6661,5897
22280,6917,5897
22792,6917,5641
22536,6661,5897
22024,6661,5385
22024,6405,5641
22280,6405,5641
22280,6661,5641
23048,6661,5897
23048,6661,6153
23304,6917,6409
23048,7173,5385
22792,7173,4873
22024,6149,4617
22024,6149,5129
21768,5893,5385
22024,5893,5385
22280,6149,5129
22280,6149,5129
23048,5893,5385
22792,6149,5129
22792,6149,5129
22792,5893,5129
22536,6149,5129
22536,6661,5897
22792,6661,5897
23048,6405,6153
23048,6405,6153
23304,6661,5897
22792,6661,5641
23048,6661,5385
23048,6661,5385
23048,5893,5129
22792,5381,5129
23048,5893,5129
23048,5893,5897
23048,6661,6153
22792,6661,5641
23048,6405,4873
22792,5893,5129
22280,5125,5129
22536,5381,4617
23048,5125,4361
23048,5381,4361
22792,5381,4873
22536,5381,5129
22280,5637,4873
22536,6149,4617
23048,5893,4873
22792,6405,5129
23048,6917,5129
23560,7173,5385
24072,6917,5385
24328,6917,5385
24328,7173,5129
24328,7429,5129
25096,8453,5385
25608,9733,5897
26376,11269,6921
26632,12549,8201
26632,13061,9737
26888,13829,10249
26888,14341,10505
27144,14853,10505
27144,15365,9481
26888,16389,6665
27656,18949,4617
29192,21253,4617
29960,22789,3081
30472,24325,777
30472,24069,-1015
30471,23813,-1015
30727,23045,-2039
30215,21765,-3831
29447,21253,-5111
29191,21765,-5111
30215,22533,-5367
30983,23045,-5879
31239,24325,-6135
30471,24581,-6135
30215,24325,-4599
30215,22789,-2807
28935,20229,-1271
26375,17925,265
24840,15877,2569
24072,13829,4361
23304,10245,5129
22536,9477,5129
20744,6149,6153
20744,3845,6921
20488,1797,6921
19464,517,6921
19208,261,6921
19208,261,8457
19464,5,9225
19720,-507,8968
19976,-1019,8200
19720,-1019,8200
19208,-763,8712
18952,-1531,8456
18952,-2555,8456
19208,-1787,9224
19464,-1787,9224
19464,-1531,9480
19720,-1787,9992
19976,-2043,7944
18440,-2043,11016
22024,-1275,6920
16648,-1275,11528
10504,-506,-26616
-9977,2567,1801
4101,2824,-11511
-1277,2823,-10487
-32509,263,23817
-1275,-3324,-15864
-23289,-3837,29448
6921,-3068,23048
22537,-3068,-17656
22024,-3836,-28152
19720,-6140,-18168
16648,-8700,-12280
15624,-10748,-12280
13576,-11516,-12536
12296,-12540,-12536
11528,-14332,-12280
10504,-16124,-12280
9736,-16892,-11512
9736,-16892,-10744
8968,-16380,-10744
8712,-11004,-10744
7432,-508,-11768
5384,13828,-13559
2312,29444,-16375
-760,-17917,-19959
-1784,4099,-24310
520,26884,-31478
4616,-24060,26634
6664,-20988,24586
18952,-24316,12298
26120,18180,5898
-31224,-15868,3593
-22008,18948,2057
-14328,4,1289
-6904,-6652,1288
-504,-6652,1032
4104,-6395,1800
6408,-5627,4104
7688,-5883,7688
8712,-7675,11272
9992,-11259,13832
11016,-13307,14600
11528,-13051,15368
12296,-13051,17160
13320,-13819,18696
14088,-13563,18696
15368,-10491,17928
16392,-7163,16648
17416,-6651,15112
18440,-6651,14600
18696,-6395,14088
19208,-4347,13832
19464,-4603,13832
19976,-5627,14088
19976,-5371,14088
19976,-4603,13576
20232,-3579,12040
20744,-4347,11272
21512,-4347,12296
22024,-4347,12296
22280,-3579,12040
23304,-3323,12296
23560,-3579,12040
23816,-3579,11784
23816,-3323,12040
24072,-3323,12040
24840,-3323,11272
24840,-3579,11272
25352,-3835,11016
26120,-3835,11016
26120,-3579,10248
27144,-3579,10248
27400,-3835,11016
28168,-3835,11272
28680,-3579,11528
28936,-4347,9992
29448,-4859,8456
30728,-4603,8456
31240,-4091,9224
32264,-3579,9992
32264,-3835,9992
-32504,-3835,9736
-32248,-4603,9992
-31736,-4603,10504
-31992,-4859,11528
-31992,-4859,11272
-30968,-4603,11272
-30712,-4091,11528
-30968,-3323,11528
-30968,-2811,11784
-30712,-2555,12296
-30712,-2043,13320
-30968,-763,13576
-31480,-763,13576
-32248,517,13833
-32248,1285,13833
-32248,3077,13577
-32504,4869,13577
32264,5381,13833
31752,6149,13833
31240,7429,13321
30984,7941,12553
30728,7941,12553
30728,8197,12809
29448,9733,13833
28680,10501,13833
28424,10501,14089
27656,10501,14345
27144,11269,15369
26888,12293,15369
26888,12549,15113
25864,12037,15113
25608,12037,14857
25352,12549,14857
25352,13061,15113
25096,13829,15113
24840,14085,14857
24328,13061,14857
24328,12549,14601
24072,12805,13577
24072,12805,13321
23816,12549,12553
23816,12549,12041
24072,11781,11273
24072,11781,11273
23816,12037,11273
24328,11525,11017
24328,10501,10761
24072,10245,10761
23816,9477,10505
23816,9221,10761
24328,8197,10761
24584,7173,10761
24584,6917,10761
24584,5893,9993
24072,4613,9993
24072,3845,10249
23816,4101,10505
23816,3589,10761
23816,2821,10761
24584,1797,11017
24584,1797,11273
24328,2053,12297
24328,2053,12041
24072,1797,11017
23560,1285,9993
23048,1029,9737
23304,1029,10249
23560,2053,10505
23560,3077,10505
23560,3333,10761
23816,3333,10761
23560,3845,10505
23560,4101,10505
23816,4613,10761
24072,4101,10505
24072,3845,10505
23560,3589,9993
22792,3589,8713
23048,4357,8457
23560,4357,9225
23304,4101,9737
23304,4101,9993
22792,3845,9737
22536,3845,9225
22536,3589,9481
22280,3589,9225
22280,3845,8201
22024,3589,8201
22024,4101,8457
21768,4357,8457
22280,4613,8201
22280,4613,8201
22792,4613,8713
23048,4869,8969
23048,4613,8713
23048,4613,8713
22536,4613,8457
22280,4869,8457
22280,4357,7945
22024,4101,7433
22536,4101,7689
22536,4357,7945
22280,4869,7945
22792,4869,8457
23048,4613,8713
23560,4869,8713
23560,5637,8457
24328,6661,8713
25864,8453,9993
26120,9477,11017
26120,10757,11273
26376,11269,11273
26888,11269,11785
26632,12037,14089
26376,12549,14345
26376,12549,13833
27144,13573,12041
27656,15365,10249
27912,18181,8457
28424,19461,6409
29192,20485,4361
29704,20997,2569
29448,21765,2569
29960,21509,1033
29960,20485,-1015
30215,19461,-1783
29703,19205,-2295
28935,19205,-3063
29191,19973,-3575
29703,21509,-4343
29959,22789,-3831
29959,22533,-3575
29191,20485,-2551
27911,19205,-503
26631,17925,2057
25352,15365,3849
24584,13061,5641
22792,10245,6409
21256,7173,6921
20744,4869,7433
20232,2565,8457
19464,517,8457
18952,-251,8968
19208,-763,8968
18952,-1787,9480
18952,-2043,9736
19208,-2811,10760
19208,-2811,11528
18440,-3835,11784
18184,-4603,10504
18184,-4603,9992
18440,-4859,9992
18440,-4859,10248
18440,-5115,10760
18696,-5115,11016
18952,-4859,11016
19208,-3835,11016
17928,-3835,11272
19464,-4347,13576
18696,-4859,8712
23560,-5371,14856
-12280,-2554,-13560
2822,8,17929
-2300,-505,-4088
4611,-760,-24568
-17404,-5370,10504
13830,-7676,-23288
-18424,-6909,-24824
14345,-6396,7944
20233,-5884,-23544
21512,-5628,-22520
20232,-5628,-10744
18952,-5884,-8184
16136,-8700,-9720
14344,-11516,-10232
14344,-15356,-8184
13576,-18684,-6648
12040,-20988,-4600
12040,-22780,-3064
12040,-25340,-2808
10248,-28412,-1272
6152,-30460,2056
1289,-30204,5128
1033,-26108,4872
2569,-15100,-1528
3592,1028,-11511
3592,21252,-21751
4104,-23804,-30967
3848,-5372,28169
4104,13060,22026
7176,28164,11274
15880,-27644,-2294
27399,-22268,-16374
-28665,-25340,-26358
-20985,25092,-27638
-11769,1284,-22006
-2041,-24572,-13559
-249,-31484,-10487
4359,5125,2825
6152,-3835,7688
9224,-7675,9736
11016,-9467,11528
10504,-10747,13832
10248,-13051,15880
12296,-15355,17672
14088,-15099,18440
14088,-15099,19720
13576,-15099,20232
14344,-15099,19464
16392,-14075,18440
17416,-11259,16392
17928,-9467,15368
17672,-7931,15112
19208,-7163,15112
20744,-6139,15368
20488,-5627,15112
20488,-5371,15112
21000,-5115,15112
21768,-5115,14856
22024,-5115,14856
22280,-5371,14600
22280,-5371,13832
22024,-5115,13832
22536,-5371,12296
23816,-5115,12040
24328,-4091,12040
24584,-4091,12296
25096,-4347,12296
25864,-4091,12296
26376,-4603,12552
26632,-4859,12296
26632,-5115,12040
27656,-5627,11528
28168,-5883,11528
28424,-5371,10760
28680,-5115,10248
29960,-5115,10504
31240,-5115,10504
31752,-5371,10760
31752,-5371,11016
-32760,-5371,10248
-31992,-5115,10248
-31224,-4859,11016
-31224,-4859,11272
-31480,-4603,11528
-31480,-4603,11528
-30968,-4603,11272
-30712,-4859,11784
-29688,-5115,13832
-29688,-4091,14344
-29944,-3323,14344
-29688,-3323,14600
-29688,-3579,16136
-30200,-3067,16392
-30200,-3323,16392
-30712,-3835,16136
-30712,-4091,16136
-30968,-4091,16392
-31480,-3067,16392
-32248,-2555,16136
-32504,-1019,16136
-32504,517,15369
32520,1797,15113
32264,3333,15113
31496,3589,15113
30984,4357,15113
29704,4869,15369
28936,5637,15625
28936,6661,15625
28936,7173,15625
28168,7941,16393
27400,9477,16649
27144,10245,16649
26888,12549,15625
26888,13317,14601
25608,14085,13321
24328,13317,13065
24328,12037,13065
25096,9477,13321
24584,6661,13833
24840,6917,14601
24328,7173,14345
24072,7173,13833
24584,7429,13065
24840,7941,12553
24328,8965,11785
24072,8709,10761
24072,8453,10505
24328,8453,10505
24840,8197,10249
25096,8197,9993
24584,8453,8969
24072,6661,8713
24328,5125,8713
24328,5125,8457
24072,5381,9481
24072,5125,9481
24584,4357,9225
24840,3333,9225
24072,3333,9225
22536,1541,9225
22280,5,9993
22280,261,10249
22280,5,10505
22024,5,10761
22024,-251,11016
22024,-507,11272
22280,-507,11272
23304,-763,11272
24072,261,11017
24328,1029,11017
23816,1029,10249
23560,517,9993
23560,-251,9992
23304,-507,9992
23048,261,9993
23048,773,9993
23304,517,9225
22792,1029,9225
22280,1541,9225
22536,1797,9481
22536,2053,9225
22280,2053,9225
22280,1797,9225
22024,1797,8969
22024,1797,8969
22280,2309,8969
22280,2565,8457
22024,2309,8713
22024,2309,8713
22280,2565,8457
22024,2565,8457
22024,2309,8713
21768,2053,8713
21768,2565,8457
21768,2821,8457
21512,3845,8713
22024,4101,8969
22280,3589,8969
22280,3333,8969
22280,3333,8969
22024,3333,8713
22024,3333,8201
22280,3077,7433
22280,3077,7433
22792,3845,7689
23048,3845,7433
23048,3845,7433
23304,4613,8201
23560,4613,8457
23560,4869,8969
24072,4613,8969
24328,5125,9225
24584,6405,9737
25608,8965,9481
26632,10245,10249
27144,10501,11017
27144,11013,12297
26632,11525,12553
26376,11269,12553
27144,11781,12297
27400,13573,11785
28168,15621,10249
28680,17413,8457
28424,18949,7433
29192,19973,5385
29960,20997,2569
30728,21509,1033
30984,21253,265
30216,20997,-247
29703,19973,-1271
29703,19973,-2807
29959,20229,-3063
29959,20485,-2551
30215,21253,-2551
30471,22021,-2807
30471,22021,-2807
30215,21253,-3575
28935,20229,-2807
27399,18949,-247
26119,16901,2313
25352,14341,4361
23304,11525,5129
21768,8709,6153
21000,6661,7177
20744,4101,7433
19720,1541,8457
19208,-507,8968
18952,-1531,9736
19208,-1275,9736
19720,-1787,9992
19464,-2299,9992
18952,-3323,9224
19208,-3323,9224
18952,-3323,9480
18952,-3579,9992
19208,-3835,10760
19720,-3835,10760
19464,-3835,11016
18696,-3579,10248
18952,-3579,9736
18952,-4091,9992
19720,-4603,9480
17928,-4603,12552
22024,-4091,9224
15880,-4091,12296
-7160,-4091,-4856
-24313,263,26377
4357,1288,-11767
3331,1032,18953
-18172,-1273,13832
23301,-6907,32008
-20473,-7165,23816
777,-5116,28680
20233,-4604,-12792
21512,-4860,-27128
21256,-5116,-17912
19208,-5116,-11768
17672,-6652,-10232
15112,-10492,-9720
13832,-14332,-8696
13320,-16380,-7672
13064,-16636,-6392
12040,-20220,-3832
12040,-23292,-3576
9992,-25596,-3576
6408,-27388,-1016
2568,-28924,2056
777,-26620,3336
1033,-16892,-1016
2056,1028,-9975
2056,20740,-18935
2312,-25340,-27383
2056,-5628,32265
2312,13316,26890
4872,28932,17930
12040,-28156,6154
23816,-25852,-7158
-30969,-30716,-18678
-23033,17156,-22262
-14329,-7932,-18423
-4601,-31484,-10999
2055,17413,-4343
4871,6405,1545
5896,-1531,5896
8200,-6395,8712
9992,-8443,11016
9480,-8187,12040
10248,-13051,15624
11784,-15611,17160
14856,-15611,17672
14856,-15099,17672
13832,-14843,18184
13576,-14587,18184
16136,-12539,17416
18184,-9211,15880
17928,-6651,14856
17928,-6395,14856
19720,-6395,14856
21256,-4091,14088
21512,-3835,13576
21000,-4347,13832
21256,-4859,13832
22024,-4859,13832
22024,-4091,13576
22280,-4091,13320
22280,-3835,13320
23304,-3835,13320
24072,-4091,12552
24072,-3835,11784
24328,-3323,11784
25096,-3323,11784
25096,-3835,11528
25864,-4347,12040
26376,-4347,12296
27144,-3323,12040
28168,-2811,10760
27912,-3067,9992
28168,-3323,9992
29704,-3323,10248
30472,-2811,10760
30472,-2555,10504
31240,-2555,10504
31496,-2811,10248
32520,-3323,9224
-32504,-3579,9224
-32760,-3579,9480
-31992,-3579,9736
-31224,-3323,10248
-30712,-3067,10504
-30456,-3323,10760
-30456,-3323,10760
-29688,-3067,10760
-29688,-4091,11528
-29432,-3835,13320
-29432,-3835,13320
-29688,-4091,13576
-29688,-4091,13064
-29432,-3067,13320
-29432,-1019,14344
-30200,5,14601
-30200,261,14089
-29944,1797,13321
-30712,2565,13065
-31736,3077,13065
-31992,4101,13321
-32248,5125,13577
-32504,7173,13833
32520,8197,14089
31752,7941,13065
31752,8965,12809
31496,9733,13321
29960,9989,13577
29192,9989,13577
28936,9733,13833
28680,11525,13833
28424,12549,13577
27656,12549,13577
27400,12293,13833
27144,12549,13833
26888,13573,13833
26888,14597,13065
26632,14341,13065
26376,14341,12809
25864,14341,12297
25608,15109,11529
25608,15109,11017
25352,14597,11273
24840,13061,10505
24584,13317,9737
24584,13573,8969
24840,13317,8969
24840,13317,9737
24584,12549,9737
25096,11781,8969
24840,12037,7689
24840,11525,7177
24840,11269,7689
24584,11269,7433
24840,11525,7433
24584,10245,8201
24584,9221,8201
25096,8965,7945
24840,8965,7945
24840,7685,8201
24584,5637,8713
24584,4613,8713
24328,4869,8969
24328,4101,9225
24584,3845,9225
24072,3333,8713
23560,3077,8713
23816,3077,9481
24328,2821,9737
25096,2821,9737
24840,2821,9481
23816,2053,9481
23816,1797,9737
24584,2565,9737
24584,3333,9481
24840,4357,9737
23816,4869,9737
23304,5125,8457
23560,5125,7945
23560,5125,7945
23048,4869,8457
22792,4869,9225
22792,4869,9225
23560,5637,8969
23560,7173,8201
23304,7429,7689
23048,7173,7689
23048,7173,7433
23048,7429,7177
23304,7941,7433
23304,8197,7945
24072,8197,7177
24072,7941,6665
23560,6917,6921
23304,6661,7433
22280,6661,7689
22024,6149,8201
21768,5125,8201
22536,5381,7689
23560,7429,7433
24072,8197,6665
24328,7685,6153
24072,6661,6409
24584,6149,6409
24584,7429,6665
24328,7685,6921
24840,7685,6921
25096,7685,6921
25608,7685,7177
25352,9221,7433
25864,9989,7433
26888,10501,7689
27144,10757,8201
27912,14085,8713
28424,15877,9225
28680,16133,9993
28680,16133,11529
28424,16901,11785
28680,17669,11529
29448,18181,11529
29960,19205,10505
30472,21765,9481
30984,24325,6921
31240,25349,4105
31752,25605,2057
31752,25861,521
32008,26373,-1015
32007,26373,-1527
32263,24581,-2295
31751,23557,-2807
30471,23045,-4599
30471,22789,-5879
30983,23813,-5879
31751,25605,-5623
32007,27397,-5367
32007,27653,-5367
31239,25861,-4087
31239,24837,-3575
27911,21509,-1271
26119,19205,1545
25352,16645,3337
24584,13061,4361
23048,10501,4873
21512,8965,5129
21000,7173,5897
21000,5125,6921
21000,4613,7433
20744,4613,7433
20744,3333,7433
20232,2053,7689
19976,1797,7945
19976,1797,7945
20488,1797,7433
20744,1541,7689
20232,1285,7689
19720,773,7433
19976,1029,7945
19976,773,8457
20744,1285,8713
20232,1285,8713
20488,2053,8457
20232,2309,7689
19720,2053,8201
20744,2053,5385
20488,517,15881
-14840,6406,-9719
4614,12040,19209
516,11272,-4599
5123,10504,-26359
-10492,4358,2313
21510,-2556,-32504
-18168,-2557,-25848
14345,-1532,7176
22025,-1276,-26616
25096,-764,-27128
23560,-1276,-17144
19976,-2044,-13560
16904,-5116,-13304
15880,-8444,-13304
14856,-9980,-12280
11528,-11516,-9464
9736,-12284,-6648
10248,-13308,-6392
11272,-15356,-6136
7432,-18428,-4600
2056,-21756,-1016
-1784,-22525,2312
-1527,-22013,2568
-1527,-3325,-5112
-1528,14851,-14071
-760,-29181,-22775
-504,-7677,-31479
8,12548,28426
1800,31748,22794
6920,-20220,14346
16648,-13564,1290
26888,-13308,-12534
-29177,-24316,-21750
-19705,20484,-22774
-9209,-6140,-18423
-761,-29692,-12279
3847,18181,-5623
5895,7429,265
7944,1797,4617
9992,-2043,6152
10248,-4347,7688
9992,-6907,11016
11528,-10235,13320
14088,-11771,14088
14344,-12027,14600
14088,-11515,15880
14856,-11003,16392
15880,-10747,16136
17928,-7675,14600
18440,-5115,14088
18696,-2811,13320
20232,-1787,12808
21000,-1275,12040
21000,-1275,11784
20744,-507,12296
21512,5,12041
22792,5,12041
22536,261,12041
22536,-251,12040
22792,-507,11272
23304,-251,11016
24072,-251,11016
24840,5,10761
25352,5,9737
25352,261,9481
26120,5,9737
26120,5,9737
26376,-251,9992
26888,-1275,9480
27400,-1787,9224
28168,-2043,9224
28424,-2043,9224
28424,-2299,8712
29704,-2299,7944
30216,-2299,7944
30472,-2043,8200
31240,-1787,8456
32264,-1787,8456
-32504,-1275,8456
-31992,-507,8200
-31992,-1531,7944
-30968,-3067,7688
-30200,-3579,8456
-30200,-2555,8712
-29432,-2043,8712
-28664,-1275,8712
-28152,-1019,9480
-28152,-1019,9736
-28408,-1019,10248
-28408,-507,11016
-28152,-251,11016
-28152,-251,11784
-28408,-507,11784
-28408,261,12041
-28920,1029,12297
-28664,1541,12297
-29688,1797,12553
-30200,2309,13065
-30712,5125,12553
-30968,6405,12041
-30968,7685,11785
-30968,8709,11529
-31736,10245,11529
-32504,11013,11785
-32504,11013,11273
32520,11781,11273
31496,12293,11529
30472,12805,11785
30216,12805,11785
30216,12805,12041
29448,13061,12041
28424,14341,12297
28168,15877,12297
28168,17157,11529
27912,17157,11017
26888,17157,11273
26632,16901,11273
26632,16133,11017
26376,15109,11017
25864,15621,10761
25608,16901,10761
25352,17413,9993
25352,17157,8969
25608,16389,8457
25864,15877,8201
25864,16133,8201
25608,16389,8201
25352,15365,7945
25352,14341,7689
25608,14597,7177
25608,14085,6921
25096,13317,6921
25352,12037,7177
26120,11269,7177
26120,10245,7177
25608,8965,6665
25352,7941,6921
25352,7429,7689
25608,7173,7689
25608,6917,7945
24840,5637,8201
24328,5637,8201
24840,5637,7689
25096,4869,7433
25096,4613,8457
25352,4613,8713
25608,4613,8713
25608,4357,8457
25096,4101,8457
24328,3333,8969
24328,3845,9225
24072,3589,9225
24072,3589,8969
24072,3845,8457
23304,3589,8201
23048,3589,8457
24072,4613,8713
24072,5381,9225
23816,5381,9225
23560,4613,8713
22792,3333,7177
22792,3333,6921
22792,3845,7177
23048,4613,7177
23560,5637,6921
23816,6405,6409
23816,7173,6665
24072,6917,6921
24072,6917,7433
23816,6405,7689
23816,6149,7177
24072,6149,6921
23560,5893,6921
23304,6405,7177
23816,6917,7433
24072,6661,7433
24328,6661,7433
24328,6405,7177
24328,6661,6921
24584,6661,6409
24072,6917,6409
23816,6149,6409
24328,5893,6665
24584,6149,6921
24584,6149,7945
24584,6917,7945
25352,8965,7689
26632,9733,7433
27656,10757,7945
27656,11781,9225
27912,12037,9993
27912,13061,10505
27912,14597,10505
28168,15877,10761
28424,16389,10249
28424,16645,8457
29448,18949,6665
29704,19461,6409
30472,22021,5129
30984,23045,3849
31240,23557,1801
31496,23813,1033
31496,23813,521
30984,22789,-1271
30215,21509,-3319
30215,20997,-4343
30471,20997,-4599
30471,22277,-4599
30727,24325,-4343
31751,25093,-4343
31751,25093,-3575
30983,24837,-2551
29703,22533,-759
28167,19461,1289
27400,16901,3081
26376,14341,4361
24840,12293,5129
23816,9989,5641
23560,7685,5897
23304,5637,6921
22280,4101,7177
21512,3077,7689
21512,2309,7945
21256,773,9225
21256,261,8969
21256,-763,8968
21768,-507,9224
22024,-507,9224
21256,-507,9224
21256,-251,9480
21000,-251,9480
21000,-1275,9480
21000,-1787,9736
21256,-1787,9224
21256,-1531,10248
22024,-1787,9224
19976,-1787,10248
23560,-2299,9224
17416,-2555,7944
-15096,-2555,-2296
-32761,-2553,-13816
7429,-2808,-9464
2051,-3320,7432
-4348,-4601,-7416
-12028,-4603,-1528
-18682,-2557,14344
-5111,-253,-32504
8713,-252,24072
22793,-252,-28408
23048,4,-22007
20488,4,-13303
20232,4,-12023
18696,-1532,-13560
17672,-4348,-13560
17416,-7676,-12280
15880,-11260,-9976
14856,-14588,-7160
14088,-17916,-6392
13064,-20476,-6136
10504,-22012,-4088
6408,-23548,8
3593,-24060,1288
3081,-19964,-1784
3592,-9468,-8952
5384,7428,-17655
7176,28164,-26615
8200,-18172,29961
7432,-1020,24329
8200,17156,18186
12296,32260,6922
21000,-23036,-6390
30983,-17660,-19446
-32761,-15868,-22518
-17401,31492,-27126
-7929,7172,-22518
7,-19963,-15095
4103,23813,-6391
6151,10757,2057
8456,3077,6153
10504,-1531,7688
11528,-3579,9992
11528,-4603,13320
12808,-7163,14856
15368,-9979,14600
15624,-10235,15624
15368,-9467,17672
15880,-8955,17928
17416,-8187,16136
19208,-5627,15112
19720,-3579,15112
20232,-2043,14600
21512,-1275,13320
21768,-1019,12040
21768,5,12809
22024,773,13833
22792,261,13577
23304,5,12041
23560,5,11785
23560,773,11529
23304,1029,11273
24328,1541,10761
25608,2053,9737
25608,1797,9993
25608,1797,10505
25608,2053,10249
26632,2309,10249
26888,2309,10249
27144,2309,9993
26888,2565,9481
27912,2053,9225
28936,1797,9481
29192,1285,9481
28936,1285,9481
29960,1541,9225
30984,2309,8713
31496,3333,8969
31752,3589,8969
32008,3077,7945
-32248,3333,7689
-31480,2821,8457
-31480,2309,8713
-31224,1797,8969
-30712,1541,8969
-29944,1797,8713
-29688,2309,9993
-29688,1541,11017
-28920,1541,11017
-28408,2053,11273
-28408,2821,11785
-28664,2821,12041
-28664,2821,12041
-28920,2565,12041
-28920,2565,12809
-29176,3077,13833
-29176,3589,13833
-29432,4869,13577
-29944,5893,14089
-29944,6917,14345
-30712,8197,13833
-30712,9989,12809
-30712,11269,12297
-31480,11525,11785
-32248,12549,12041
-32248,13829,12041
-32760,15365,12041
32520,15621,12809
32008,16133,13065
31752,16645,13065
30472,16901,13065
30216,17669,12809
29704,17413,13321
28936,17413,13577
28936,18181,13577
28424,17925,13065
28168,17925,12297
27912,18949,12553
27912,19717,13065
27400,20485,12553
26888,20485,11529
27144,20997,11273
27400,20997,10761
26888,21253,10761
26376,20741,9737
26120,19717,9225
26120,19461,8969
26376,19461,8969
26376,18949,8969
26120,17669,7945
26120,17669,7177
26120,17925,7177
26888,17925,7433
26632,16901,6921
26632,16645,6665
26888,16901,6921
26888,16133,6409
26632,14853,5641
26632,14341,5641
26632,14085,5897
27912,14341,6153
27912,12805,6153
27144,11525,6665
26120,11525,7177
26120,11781,6921
26376,11781,7177
26376,11525,7177
26120,10501,7177
25608,10245,6921
25608,11013,7177
25864,11013,7945
25608,11013,8457
