264,-4342,29959
8,-4854,30983
776,-5366,-32505
1288,-5878,-30457
1544,-5110,-29433
1032,-5622,-29177
1032,-6902,-27641
7432,-4854,-27641
2056,-7926,-25081
1288,-7926,-25081
8,-9206,-24825
-1528,-11511,-23801
264,-11254,-23289
264,-10230,-23033
264,-10230,-23289
-2296,-11511,-22777
-2296,-12279,-22777
-1016,-12023,-22777
264,-11254,-23289
-1016,-11255,-23545
-1272,-11255,-23801
-2552,-12023,-23801
-2552,-12279,-24825
-2296,-10743,-25337
-1784,-9463,-26105
-1016,-8439,-26617
-504,-8439,-27385
-760,-6903,-28921
-504,-5879,-29689
1032,-4086,-30713
2568,-2294,-31737
3080,778,32264
9736,5386,30984
5640,7946,29192
5640,9226,28168
2824,9482,26376
1032,10506,25096
1544,11530,23816
1032,10506,22536
1032,9994,20232
-760,9737,18696
-248,9737,17160
1032,9994,16648
1800,10250,15880
1288,12042,14856
2056,12554,12040
2056,11018,8200
520,7690,5128
-1784,4873,3336
-3064,3081,2312
-2808,2313,1800
-2040,1289,264
-1784,9,-504
-2553,-1015,-505
-2809,-1527,-505
-3065,-1527,-249
-2553,-2551,-761
3591,-1014,-1529
-2809,-4343,-1017
-3065,-4343,-505
-2809,-4855,-505
-2553,-5623,-249
-1785,-6135,-249
-3065,-6903,7
-3064,-7159,263
-3832,-8439,7
-3320,-9463,-249
-3065,-9207,-249
-3065,-8695,263
-3064,-8439,263
-2040,-8695,263
-3576,-11511,519
-5624,-14071,263
-7160,-15607,7
-6904,-16631,-249
-6905,-20215,-1529
-8441,-22775,-2553
-9209,-18935,-4601
-7161,-8951,-7417
-3321,3849,-11256
-505,13065,-13304
263,22538,-13560
6151,29194,-14328
2055,-24310,-19960
3591,-12790,-24056
10247,7434,-27127
19463,26890,-26615
30215,26890,-18167
-27641,7946,-503
-22521,-14326,16648
-22520,-27126,23816
-19192,31498,31496
-17912,8458,-14584
-20472,-29174,8199
-23287,-1014,26886
-21239,-27126,-27386
-20215,13834,-8186
-18935,-9974,15109
-18678,-18166,20741
-20726,-16118,19461
-26870,-19190,21765
-32502,-20726,22789
30986,-16886,21253
29962,-4854,20997
29194,12298,6918
24074,-32502,-31482
11785,-8438,1542
13577,1802,-7161
3080,-26358,21255
1032,-8182,775
-3576,1545,-15608
-7673,5129,-23544
-6393,7945,-26616
-4857,10505,-28664
-4857,10249,-29176
-8697,9737,-28920
-8185,11273,-30968
-6393,13065,-32504
-6393,13065,-32504
-9209,11529,-32504
-8953,11785,32264
-8953,13065,30984
-8953,13065,30216
-9721,13065,30472
-9721,13065,30216
-9977,13065,29192
-9721,14345,28680
-9721,14345,28680
-10489,13577,28168
-10745,13577,27400
-10745,13833,26632
-10489,13833,25864
-5625,15625,25608
-11257,13065,25096
-11513,13065,24584
-11513,13065,24328
-12281,12297,24328
-12281,12297,24328
-12793,12041,23816
-12025,12041,23048
-12281,12041,23048
-12281,12041,23304
-13049,11785,23048
-12537,11785,22536
-13561,11273,22536
-12793,11017,22280
-13561,11273,22792
-13305,11529,23048
-13817,11529,23048
-13305,11529,23048
-13561,11529,23304
-14073,11785,23560
-14073,11529,23816
-13049,12041,24072
-13049,13577,24328
-12537,14345,24840
-13049,14345,24840
-8697,15625,25096
-12281,15369,24840
-10745,17161,25096
-10745,17161,24584
-11769,16905,24584
-10745,18441,24328
-10233,19209,24840
-7417,19977,25096
-8185,19977,25608
-8441,19977,26120
-8697,20233,26632
-6905,20233,27400
-6649,19209,28936
-6393,18953,29960
-6393,18697,30728
-5881,17929,32520
-5625,16137,-30456
-3833,16137,-29432
-3065,15881,-27896
-3321,14857,-26104
-2809,12809,-23544
-1785,11785,-22008
-1785,11529,-20984
-1529,10761,-19704
-1785,8713,-17400
3335,9482,-17144
-505,6921,-15352
-249,6921,-14328
-761,5129,-12792
-1273,4361,-11512
-249,4361,-11256
-761,3593,-11000
-1017,2057,-9720
-2041,777,-9208
-2041,777,-9208
-1529,1033,-8952
-249,777,-8952
-1017,-247,-8953
-1273,-247,-9209
-1017,521,-8184
-249,521,-7928
-249,-759,-7929
-249,-503,-8185
-1017,-759,-8185
-1017,-759,-7929
-1017,-1015,-7161
-1017,-1271,-7161
-1529,-1783,-6905
-2041,-1527,-7161
-1273,-1527,-6649
4871,266,-6392
1031,-758,-5881
775,-758,-5881
263,-1270,-5113
263,-1014,-4857
775,-758,-4345
519,-1014,-4089
775,-1014,-4089
-505,-1783,-3577
-505,-2039,-3577
-249,-2039,-3065
263,-1782,-3065
7,-1782,-2553
7,-1782,-2809
-505,-1527,-2553
-249,-1783,-2809
-249,-2039,-2041
519,-1526,-2297
775,-1782,-2297
-249,-2039,-2553
-1529,-3319,-2297
-505,-3319,-2297
263,-2294,-2041
1287,-502,-2297
775,-758,-2041
4615,-758,-1785
519,-2038,-2041
1031,-1782,-1785
775,-1526,-2553
-249,-2039,-2809
-505,-2039,-2297
-249,-2039,-1529
1287,-2038,-1785
775,-2038,-1529
-249,-1783,-1529
-249,-1527,-1273
775,-1526,-1273
519,-2038,-1273
519,-1782,-1785
-761,-2039,-1785
-505,-2295,-1785
-505,-2551,-1017
519,-2806,-1017
263,-2550,-1273
7,-2038,-1273
-249,-2295,-1017
-249,-2551,-1017
-505,-2807,-1017
-249,-2551,-761
-249,-2295,-1017
4359,-1270,-1017
263,-2294,-1017
519,-2038,-249
263,-1270,519
520,-246,775
520,1034,1544
520,2314,2824
2056,3850,3848
1800,5898,4616
2312,7434,6152
2568,7434,7944
3080,8458,9480
3080,10506,8968
3848,11530,6152
3080,11018,3336
3336,9738,-1016
3079,9738,-2552
3591,9994,-3320
2055,7178,-3320
1799,4106,-3576
7,2826,-3832
7,3082,-4344
263,3082,-4600
263,2314,-5624
263,778,-7160
5127,1034,-6904
4871,5898,-5368
4615,6922,-4600
2311,5898,-3320
-249,2313,-1784
-2553,-2039,-249
-4601,-3831,519
-3832,-4343,519
-3576,-5623,519
-1272,-6647,7
-248,-6391,-249
-1017,-6135,7
-2808,-6135,775
-1016,-5879,775
-760,-6135,7
-1016,-5879,-249
-2297,-6135,-249
-1529,-5367,-505
-1529,-4855,-1529
-2041,-3063,-7673
-3065,-503,-11001
-3065,1289,-8440
-4857,-3319,-7673
-8441,-15351,-7929
-13817,-25591,-12793
-12281,-27127,-14841
-17145,-24823,-24057
-15353,-20471,-27129
-15609,-14327,22023
-14585,-2551,-14841
-8698,15881,19720
2566,-20214,14344
17926,18698,11017
-32506,-15350,8457
-18426,-1782,10761
-7162,-246,13577
-1786,-6902,16649
-1530,-9974,14857
-762,-9974,15369
-1018,-24310,27657
-5114,8970,-24055
-16634,-26358,-13816
-24314,8970,-3576
-31482,-20470,8711
28167,20490,22791
22535,1802,-28153
19719,-4854,-18682
15367,-3318,-9978
12039,10506,-3833
5639,28170,-2041
6407,32010,-1785
519,-20982,3591
1544,-14070,7431
-1528,-10487,10503
-3832,-8439,11271
-3832,-5879,12039
-2296,-4087,13575
-1784,-2551,15111
-4088,-2551,15623
-4600,-3575,15623
-3832,-3319,16391
-3832,-3063,17415
-4344,-2807,18183
-4088,-2295,18439
-4088,-2551,19207
-3832,-2551,20743
-4856,-2807,22023
-4088,-2807,22535
-4344,-2807,23559
-3320,-2807,24839
-3320,-3063,26631
-3576,-3063,27911
-3576,-3319,28679
-2040,-2807,29703
-2040,-2551,31495
520,-2806,-32761
-2552,-5111,-31737
-2296,-5367,-30457
-2040,-4855,-28665
-1528,-4599,-27385
-1016,-4855,-26361
-504,-5879,-24825
-504,-5879,-23801
-248,-6135,-22777
264,-6134,-22521
264,-6902,-21497
8,-6902,-20473
264,-7414,-19961
1032,-7414,-20217
8,-7926,-19961
8,-8182,-19961
-1016,-8695,-20217
8,-8694,-20217
-504,-8695,-19961
-248,-8183,-19705
-504,-8439,-20217
-248,-8439,-20729
-1016,-8695,-20729
8,-8182,-21241
-760,-7671,-21497
1288,-7414,-21497
-1272,-7159,-22777
-248,-6647,-22777
-248,-5111,-23545
-504,-4855,-24825
-504,-4599,-25849
-760,-4343,-25849
-760,-2807,-27129
-760,-1783,-29177
-1528,-1783,-30969
-2552,-1527,-31737
-1528,9,32008
-504,2313,29960
520,4874,27656
776,5898,26632
520,6666,25608
-504,6409,23816
1288,8714,21000
1288,9738,20232
520,9482,19464
-504,9481,18184
264,10506,16136
520,10762,15880
1032,10762,15368
-504,10761,14088
1800,10762,14344
264,9482,12040
8,8202,12040
-760,7945,12040
264,7946,11272
520,7946,10760
-248,6409,11272
-1016,4361,11528
-1272,4105,11528
-1272,3593,11528
-1016,2569,11272
-1272,2057,11784
-1784,1289,12808
-1528,1289,12808
-1272,265,12552
-1528,-2039,12551
-4088,-4087,13319
-3320,-3831,13831
-2296,-4599,14087
-2040,-6135,14087
-4088,-7671,14087
-4600,-8439,14087
-4344,-8183,14599
-2552,-8951,14599
-3576,-10487,14087
-2808,-10999,14855
-5624,-11511,13831
-5368,-12279,13831
-5368,-12279,13319
-3576,-11511,12295
-3320,-10487,12551
-2808,-9463,12807
-2552,-10231,12039
-2552,-9975,11527
-2296,-8951,11015
-2040,-8439,10503
-1784,-7671,10503
-1528,-7927,10247
-1528,-7415,8967
-1272,-6903,8711
-760,-5623,9223
-504,-5623,9223
264,-5366,9223
8,-5366,8967
264,-5622,8455
-504,-5623,8455
-504,-4855,8199
-1272,-5367,7943
-504,-5111,7431
-760,-5111,7431
776,-5110,8455
-248,-3831,7687
264,-4086,7943
-504,-4343,7431
-248,-4343,6663
-1272,-4343,6407
-1528,-4343,7175
-1528,-4087,8199
-504,-3831,8455
264,-2038,8711
264,-246,9479
264,1546,11528
776,2058,13064
776,3594,13320
264,5130,13832
264,5386,15624
520,5898,18184
2056,8458,17160
2056,9226,14600
1800,9226,10504
1288,8202,6920
1288,7178,4360
8,6154,3848
8,4362,3592
-1016,1801,3592
-504,-1015,4615
-2296,9,2312
264,1802,2056
264,1546,1288
520,-246,-761
7,-502,-761
263,2826,1544
776,5130,2824
776,3082,2824
-2552,-759,4615
-6136,-4343,6663
-7928,-5623,6919
-7160,-7415,6663
-6392,-9975,5895
-5624,-10231,5895
-5368,-9463,6151
-5368,-9463,6407
-4600,-9463,6407
-5112,-10231,6407
-4856,-10231,6407
-4856,-9975,6663
-5624,-9719,6663
-6648,-9975,6663
-6904,-10231,5639
-8184,-10231,1031
-7672,-10487,7
-7672,-3063,-2041
-7417,-5111,-1017
-11513,-16887,-1273
-16377,-27895,-3577
-20985,32265,-11257
-21753,-32759,-15609
-22009,-29175,-17657
-20985,-22519,-30457
-18937,-11511,4103
-14329,4105,31240
-6906,27145,12040
7174,-1526,10248
24070,-28406,11529
-26106,-5366,11785
-13306,2058,13322
-7418,-2294,19465
-4602,-10230,19465
-2810,-11254,19465
-2554,-20470,29449
-4858,21002,-22775
-13562,-13302,-12536
-23290,20490,-1528
-27386,-10230,12295
30983,27146,25095
28679,18954,29959
20743,-2806,-15866
16903,-7158,-6394
11271,778,1287
6408,20234,2311
2312,-30710,3847
1032,-24566,8711
-504,-18423,12807
-1272,-12791,14599
-3576,-8439,15879
-3320,-6647,17927
-2552,-5367,19975
-2808,-3831,20487
-3064,-2295,20231
-3064,-2039,21767
-3064,-3063,22791
-3320,-2807,23559
-3064,-1271,23815
-2808,-1271,24583
-2808,-2039,26375
-3576,-2295,26887
-3576,-2295,27143
-3832,-2295,28679
-3320,-2551,30215
-3576,-3063,31495
-3320,-5111,-32505
-3832,-3831,-32761
-4344,-3831,-30969
-5112,-4343,-29433
-4600,-5111,-29433
-4344,-5367,-28153
-3064,-4343,-25337
-2552,-4087,-23545
-1784,-3831,-23289
-1528,-4087,-22777
-2040,-6135,-20729
-2552,-6391,-18681
-2296,-6391,-18681
-2296,-6391,-18425
-2296,-6647,-17913
-2552,-7159,-16377
-3320,-8183,-15609
-2808,-8183,-15609
-3064,-8695,-15865
-2808,-8695,-15609
-2296,-8695,-15609
-2296,-8695,-15353
-2296,-8439,-15097
-2040,-8439,-15865
-3320,-8951,-16121
-3576,-11255,-14585
-2808,-8439,-16121
-2296,-7159,-16121
-2040,-6647,-16633
-1272,-6135,-18169
-1784,-5623,-18169
-2040,-5367,-18425
-2808,-4855,-19449
-2040,-3831,-21241
-1016,-2295,-22009
-760,-1527,-22777
-1528,-759,-24313
-1528,1033,-26360
-1016,2569,-28408
-504,3337,-29944
-504,5385,-31224
-504,6921,32520
1032,8970,30472
2056,10506,29960
3592,13066,28424
4872,15882,26632
5384,17418,24840
5128,17674,23816
4872,16906,22024
1800,14858,20744
8,11274,21256
8,10506,18696
520,9226,18952
-248,8969,18952
-248,10249,18696
-1272,9993,18696
-1784,8457,18184
-1784,7177,17928
-504,8201,17416
-248,9225,17160
-248,8201,14344
-1528,5641,9736
-2808,1545,7688
-4600,-1271,7687
-4344,-1015,7943
-4344,-1783,8199
-4088,-3575,7431
-4600,-4855,7175
-4344,-4599,7175
-4088,-4343,7687
-3320,-5367,8455
-3576,-6391,7687
-4600,-7159,7687
-4856,-7159,7943
-4600,-7927,8199
-4856,-11255,9479
-4856,-9207,7943
-5112,-9207,8199
-5624,-9463,7687
-4856,-9463,7431
-6904,-11511,7175
-8696,-14327,6919
-9720,-15607,6663
-7928,-16119,6407
-7160,-17911,6151
-7672,-19191,4359
-8184,-16119,2823
-7672,-6391,263
-5880,5641,-3320
-2041,15369,-5880
7,24842,-6392
7,-29942,-7928
-249,-21495,-12536
1543,-10742,-17656
7431,8714,-21239
16647,28938,-21751
26887,30730,-14583
-29945,14090,1801
-23800,-8182,20232
-21496,-20982,29192
-21496,-25334,32264
-18424,14346,-12280
-21240,-23030,9991
-23031,6154,29703
-22007,-23030,-23290
-21495,18954,-7930
-20215,-4086,12293
-19958,-16118,20485
-19702,-16630,20485
-26614,-20726,22789
31242,-22262,22533
28170,-18678,20741
27146,-13558,20997
24330,-1014,20997
20234,19210,-3066
11273,-17910,22534
3337,10250,-7161
1800,-31734,-28665
1032,-13302,18183
-3320,-1783,775
-6904,5641,-12792
-7161,9225,-17912
-7417,10761,-19704
-7673,10505,-20472
-8697,10761,-20984
-10233,9737,-20472
-9209,13321,-23800
-8953,12809,-23544
-8697,12553,-23288
-9209,13321,-25336
-9721,14857,-26616
-9465,15113,-26616
-11257,13577,-25848
-9721,14345,-26616
-9465,16137,-27896
-9209,16137,-28664
-11257,15113,-28664
-11001,14857,-28920
-11001,14857,-29944
-10745,15625,-30968
-11769,15625,-30712
-12025,14601,-30712
-12537,13577,-31736
-12793,13577,32520
-13305,13577,32520
-13561,13833,-32504
-13561,13577,-32504
-13817,13321,-32504
-13561,13321,-32760
-13817,13321,32264
-14841,10249,-31736
-14329,11017,32008
-14841,11273,32008
-15097,11529,32008
-14585,11529,31752
-15097,11273,32008
-15097,11529,32264
-15609,12041,-32760
-14841,12553,32520
-14841,12809,32264
-14841,12041,32264
-15353,12297,-32248
-15353,13065,-31736
-15097,13833,-31736
-13817,14857,-32504
-14073,15113,-32504
-14841,15113,-31736
-14585,16649,-31224
-13049,17673,-30968
-13049,17929,-31480
-12793,17673,-31992
-12793,18697,-31992
-12281,19721,-31480
-10233,20489,-31480
-9465,20745,-31224
-12281,18185,-29176
-9209,21001,-29176
-8185,21001,-28664
-7929,21257,-28408
-8185,19977,-27896
-7929,18697,-26104
-6905,17929,-24312
-6905,17417,-23032
-5113,17161,-22264
-4345,16393,-19704
-4601,14345,-16888
-4345,13577,-15352
-2809,13577,-14584
-3065,11529,-12280
-3321,9225,-9720
-4601,7945,-9208
-4601,6921,-8952
-3321,6921,-6904
-2553,6409,-5368
-4089,3593,-4344
-4345,2825,-4344
-4089,2825,-3832
-2809,2825,-2040
-1273,3081,-1528
-1529,2057,-1272
-5113,-1527,263
-3576,777,-1272
-3065,777,-504
-2297,1033,-504
-2041,-247,-761
-3577,-1015,-761
-3577,-759,-505
-3321,-1015,-249
-2041,-759,7
-2040,-503,263
-2040,-759,7
-1784,265,8
-248,9,776
-760,-503,1287
-504,-247,1543
-2040,-503,1287
-2296,-1271,1031
-1528,-1015,2567
-504,-1271,3079
-1528,-1527,3079
-1528,-1271,3335
-2552,-2039,3847
-2552,-2551,4359
-1528,-2295,4359
-760,-1527,4359
-3832,-3831,6919
-504,-1015,6151
-504,-1783,5895
-504,-1783,5127
-504,-1527,5127
-1016,-1527,5895
-1016,-1527,5895
-1272,-2039,5895
-504,-1783,6151
-248,-1527,6407
-504,-2039,6407
-1528,-2295,6407
-1272,-2039,6663
-1016,-2295,6919
-504,-2295,6919
-1528,-2295,6919
-1528,-2807,6663
-1528,-3063,6663
-1016,-3063,6663
-1528,-2807,6919
-1272,-2807,6919
-1272,-2807,6919
-1016,-2807,6663
-1016,-2551,7431
-1016,-2295,7431
-4344,-6135,8967
-760,-3575,7431
-760,-3319,7431
-760,-2807,7687
-1272,-2807,7431
-1272,-3319,7431
-1784,-3319,7431
-2296,-3319,7175
-1016,-3063,7431
-1016,-3063,8455
-1528,-3575,7943
-2296,-3319,7943
-2296,-3831,7431
-2040,-4087,7431
-760,-2807,7687
-1528,-2551,7687
-1528,-2807,7431
-1272,-3063,7687
-248,-2295,7687
-504,-2295,7431
8,-2038,7431
8,-2038,7431
8,-2038,7431
-760,-2039,7431
-504,-2039,7431
-4088,-5623,8967
8,-2038,7687
8,-1526,8199
520,-502,8455
1288,1034,8712
1032,1802,10248
1032,3082,11528
1544,4874,12040
2568,6410,12808
2568,6410,14600
2312,6922,15880
2312,9994,16648
3336,12042,15624
3592,11786,13576
4360,11274,9736
4104,11018,5384
3592,10762,3592
2312,8970,3592
2568,6154,3848
2056,4362,3848
2056,4362,3080
776,4362,3080
1288,3850,2312
2312,2570,1288
3848,2826,8
-248,9,1032
3592,7434,2312
3336,6666,3336
2568,4874,3592
520,2314,4872
-3064,-247,6663
-4088,-3063,7687
-3832,-5623,7431
-2296,-6135,5895
-2296,-6903,5895
-2808,-7671,6663
-2808,-7415,6663
-2040,-6391,6663
-2040,-6135,6663
-1784,-6391,6919
-3064,-7159,6919
-3320,-7159,6663
-3320,-7159,6151
-3320,-6391,3847
-3832,-4343,-1529
-3321,-503,-2553
-4345,265,-760
-6649,-8439,-249
-11769,-20471,263
-15608,-27639,-6649
-21497,32265,-8185
-18169,-25847,-17401
-17657,-21239,-21753
-15865,-11767,21255
-13305,1289,-19960
-7418,21001,17416
4870,-10230,11272
21766,30730,10249
-26874,-8694,11017
-14842,-758,11529
-6906,-2294,18697
-3066,-8694,23305
-1274,-8694,20233
-1530,-12790,24841
-2554,31242,-26871
-9722,-3574,-13560
-18426,29706,-3832
-25594,-502,6919
-31993,-28662,19463
27399,14090,-30457
23303,-1782,-17658
17927,-7414,-9210
12807,-3318,-1018
7687,14858,3591
5128,31754,5383
-248,31497,7175
-504,-19447,11015
-1784,-14839,15367
-1528,-9719,17671
-1784,-5623,18183
-2552,-5111,18439
-3064,-5111,20487
-3064,-3831,22023
-1784,-1271,22279
-1784,-1527,22023
-3064,-2807,22535
-3576,-2551,23559
-3576,-1527,25095
-3576,-1527,25095
-2296,-1527,25095
-2552,-1783,26887
-2808,-1783,28167
-3320,-1783,28679
-2040,-1527,29447
-1528,-1527,31239
-760,-1527,-32505
-1528,-1527,-31737
-2040,-2551,-31225
-1784,-3063,-29433
-1272,-3063,-27641
-5880,-5879,-25593
-1528,-3575,-25337
-2040,-4855,-24057
-1016,-5111,-22265
-248,-4343,-20473
-504,-4087,-19449
-760,-5879,-18937
-1272,-7671,-17657
-1016,-7415,-16633
-760,-7159,-16121
-504,-7671,-15865
-248,-8183,-15097
264,-8182,-14073
-248,-7927,-14329
776,-7158,-14585
264,-7414,-14329
8,-6902,-13305
-248,-4599,-12537
-248,-3575,-12793
-1272,-4343,-13305
-1528,-4855,-13305
-3320,-5367,-13561
-3320,-4855,-13305
-2552,-3319,-13305
-1784,-759,-14841
-6904,-3063,-14073
-2040,5897,-14072
-2040,8457,-13816
776,12042,-14584
2568,15370,-15352
2824,16650,-15608
2312,16394,-15864
2056,16138,-16376
2056,15114,-17912
776,12298,-19448
-2552,8457,-23032
-3576,7177,-29688
-2296,7433,31240
-1528,7433,30216
-1272,7433,28424
-1272,7689,26376
-504,7689,23816
-760,7689,23048
-760,7689,22024
-760,6921,20488
-760,6921,18440
-1272,6665,17416
-1528,6153,16904
-1528,6153,15880
-1016,5897,14344
-5880,2569,15368
-1016,4361,13832
-1272,4617,13832
-248,4617,12808
264,4618,12296
264,3850,12040
-760,1801,12040
-760,1289,12296
8,1802,12040
264,778,12040
-760,-1015,12551
-504,-2039,12295
-1528,-3319,12551
-2552,-4087,13063
-1528,-4343,13575
-1784,-6135,13319
-2552,-8183,13319
-2552,-8695,13575
-2296,-9207,13575
-3320,-10487,14087
-2808,-11511,14599
-3320,-12279,14599
-3576,-13303,14343
-4600,-14071,14087
-3832,-14071,14087
-8696,-17399,15879
-2552,-14839,13831
-4088,-15095,13063
-4088,-14839,13063
-3832,-14839,12807
-2808,-14839,12551
-2552,-14583,12039
-2808,-14583,11527
-3064,-14071,11271
-2040,-14327,11015
-2040,-13303,10759
-2040,-12023,10759
-2296,-11767,10759
-2808,-12023,10759
-2040,-12279,9735
-1528,-10999,9223
-1272,-10743,9479
-2040,-10743,9479
-2040,-10999,8711
-2296,-10999,8455
-1528,-9975,7943
-1272,-9463,7943
-1784,-9463,7943
-3320,-9975,7687
-2552,-9975,7943
-7160,-12791,9223
-1272,-7927,8199
-1528,-7927,8199
-248,-7159,7943
264,-6134,8199
1032,-6134,8199
-504,-7159,7943
-760,-7159,7943
264,-6390,7687
776,-6390,7687
-248,-6391,7943
-504,-6391,7431
-760,-6391,6919
-1016,-7159,7175
-1272,-7159,7431
-1528,-7159,7431
-1784,-7159,7175
-1528,-6903,6919
-504,-5623,7175
520,-4598,7431
1032,-4342,7431
264,-4342,7175
520,-4598,7175
-248,-5623,7175
-248,-5623,6919
-6136,-8183,7943
-1016,-5367,6919
-1272,-5623,6919
-760,-5623,6663
-504,-5367,6663
-248,-5367,6663
-760,-5111,6919
-1016,-5367,6919
-760,-5367,6663
-504,-5111,6663
-1528,-5111,7175
-760,-5367,6919
-760,-5111,6919
-1272,-5367,7175
-1272,-5367,7175
-1016,-4855,6919
-504,-5111,6919
8,-4598,6919
8,-4598,6919
-1016,-4855,6919
-1272,-4855,6919
-1272,-4855,6919
-1016,-4855,6663
-1272,-4855,6919
-1528,-5111,6919
-7416,-8439,8199
-1016,-5367,6407
-1528,-5111,6407
264,-3830,6407
520,-3830,6663
520,-4086,6407
-248,-3575,6151
-248,-3575,5895
520,-3318,6151
776,-3574,6151
8,-4086,6407
520,-3830,6151
8,-4086,6151
8,-4086,6407
8,-4086,6407
520,-3830,6663
520,-3574,6407
264,-3318,6407
520,-3574,6151
-760,-3831,6151
-504,-3831,6407
8,-3830,6663
-248,-3831,6407
-1016,-3831,6663
-504,-4087,6151
-6648,-7415,7175
-760,-4087,6407
-1272,-4087,6407
-760,-4343,6407
-760,-4087,6407
8,-3830,6663
-1016,-3831,6407
-1272,-4087,6407
-1016,-4087,6407
-760,-4343,6407
-504,-4343,6407
8,-3830,5895
-760,-4087,6151
-504,-3831,6151
8,-3574,6407
264,-3574,6663
8,-4086,6151
-504,-4087,6151
-504,-4087,5895
-248,-4087,6151
-248,-4087,6151
-760,-4087,6151
-1016,-4343,6151
-1016,-4343,5895
520,-4086,5639
-5624,-6647,6919
-248,-4087,6151
-1528,-4087,6407
-248,-3831,5895
8,-3830,5895
8,-3062,5895
-504,-3319,5895
-248,-3831,5383
8,-4342,5895
8,-4342,5895
-1784,-4599,6151
-1528,-4599,5895
-1784,-4855,5639
-1016,-5111,5639
-248,-4087,5895
520,-2550,6407
8,-2806,6407
264,-3830,6407
8,-3830,6151
264,-3318,6151
520,-3062,6151
520,-3574,6151
8,-4598,5895
-1016,-4599,5895
8,-3574,5895
-5112,-5879,6919
520,-4342,5639
-1016,-4087,5895
-1016,-3831,5895
-760,-3831,5895
-248,-3831,5895
-1272,-4599,5895
-1272,-4855,5895
-760,-3831,6151
1288,-2806,5639
776,-2806,5639
520,-3062,5639
-760,-3575,5639
-504,-3575,5895
-248,-3831,5895
-248,-3831,5127
-1016,-4343,5127
-760,-4087,5127
-760,-4087,5127
-248,-4087,5383
-248,-4087,5639
8,-4086,5895
8,-4086,5895
-1272,-3831,5639
264,-3318,5639
-5368,-6135,6407
264,-4342,5895
-504,-4087,5895
-248,-3575,5895
-248,-3319,5639
520,-3574,5895
264,-3830,5639
8,-4086,5639
8,-4086,5895
1288,-3574,5383
776,-3318,5639
1288,-2294,6919
1032,10,8200
2312,2058,9480
3080,3594,9480
3336,4362,10504
3336,5642,12808
3080,6154,13832
2568,6410,14600
3592,8458,14344
4104,9482,12552
4104,9226,8456
3848,8458,3848
3080,7946,2312
3336,6666,1800
-2808,3337,2568
1288,1802,1544
1288,1290,1288
1544,1290,1544
2056,1290,520
3592,1290,-1016
3079,522,-1784
3335,1034,-2040
3335,3082,-1016
3847,3850,520
3336,3338,1544
776,10,3080
-3064,-4087,4359
-3320,-5111,4103
-3320,-6391,4615
-2040,-8439,4615
-2040,-9719,4103
-2296,-9975,3847
-2040,-8951,4103
-2040,-8695,4615
-2808,-9719,4615
-2808,-9719,4359
-2040,-9463,4103
-1528,-8695,4103
-1272,-8183,3847
-7160,-10743,4103
-3064,-6135,-4089
-3577,-2807,-4345
-3065,-2039,-1785
-6137,-9207,-1785
-11001,-21751,-1785
-15097,-30199,-7161
-16121,-30455,-15353
-15865,-26103,-20217
-14841,-21751,-25849
-14841,-12791,17415
-12281,521,-23800
-6394,21001,16392
6150,-9718,12552
23046,31498,10249
-26106,-9206,10505
-13050,-502,10761
-4346,-1014,14601
-1274,-8438,17673
262,-8437,17161
262,-12533,22281
-1274,27914,-30455
-9210,-9974,-16888
-19194,22538,-5368
-25594,-6646,5639
32007,-17654,8455
27911,7434,32263
23047,-8182,-17914
18695,-9462,-9978
14343,-1526,-4346
10247,16906,-761
4871,29706,2567
2568,-27894,5639
2056,-19958,7687
1288,-15862,10247
-1528,-13303,14087
-1528,-9463,15111
-1784,-7159,14855
-760,-5879,15367
-1528,-5623,17671
-1528,-5111,18951
-2296,-5111,18439
-2552,-5111,18439
-2296,-4855,19207
-1016,-4599,20743
-1272,-4343,21511
-760,-3575,21511
-1016,-3575,21767
-1272,-4087,23047
-248,-3831,24327
-5880,-5879,24839
-760,-4599,25095
-760,-4343,26631
-248,-4599,28423
-248,-4855,29447
264,-5110,29447
-248,-5111,30727
-248,-5111,-32761
8,-6390,-31481
776,-6646,-30713
520,-6646,-29433
1544,-6646,-27641
1288,-6646,-26361
1544,-7158,-26105
1288,-8950,-25081
1544,-8694,-23545
1544,-8950,-22521
1800,-9206,-22521
264,-10486,-21753
264,-11254,-21241
8,-11510,-20473
8,-11510,-20473
8,-12022,-20473
-504,-12535,-20729
-504,-12791,-20473
-5624,-14327,-20217
520,-12022,-21497
-504,-11767,-21497
-504,-12023,-22009
-504,-12023,-23033
8,-10742,-23289
-504,-9975,-23545
8,-9462,-24057
8,-9718,-25081
8,-9206,-25593
-248,-8439,-26105
520,-7158,-26617
776,-6646,-27129
1288,-5622,-28153
776,-4598,-28665
1288,-3062,-29433
1032,-2550,-30969
1288,-1782,-32505
1288,-502,32263
2056,1802,30728
1800,2826,29704
1288,3082,27400
1288,4618,26376
1032,6666,25352
2568,8202,23816
-2040,6665,23304
2568,9738,20488
1288,10506,19976
2312,11786,18184
2568,11530,16648
2824,11786,15368
2056,12042,14856
1800,12042,13576
1800,12042,12808
1800,11786,12040
1800,10506,11784
2568,9994,11016
1032,9482,10504
1032,8970,9992
1288,7690,10248
2312,7178,9992
1800,6666,9992
1288,5130,9736
8,3338,9992
264,1802,9736
264,1034,9736
264,522,9736
-1272,-1783,10759
-1272,-2807,11015
-504,-3319,10759
-5368,-5623,11015
-1272,-6903,11015
-2040,-8183,11271
-1272,-8183,11783
-1016,-8695,11783
-760,-9719,12039
-1272,-10999,12295
-1528,-11255,11783
-1272,-11511,11527
-1272,-12791,11527
-2296,-13559,11783
-2296,-13559,11271
-2296,-13815,10759
-2040,-13815,10759
-2296,-14327,10503
-2040,-14071,10503
-1784,-13559,9991
-1016,-13559,9223
-1016,-13559,9223
-760,-13303,8711
-1528,-12279,8199
-1016,-11767,8199
-1272,-12023,8455
-1016,-12023,7687
-1016,-12023,7175
-5880,-13047,7431
-1016,-11255,6919
-760,-10999,6663
-504,-10999,6407
-760,-10487,5895
-1016,-10487,6151
-1016,-10231,5895
-504,-9975,5895
-248,-9719,5895
-248,-9207,5639
-1272,-9207,5639
-760,-9207,5127
-248,-9207,5383
264,-8950,5383
-504,-8951,5127
-248,-8951,4615
-760,-8695,4359
8,-8694,4871
-248,-8951,4871
-248,-8695,4871
-1272,-8695,4871
-1016,-8695,4615
-1016,-8439,4615
-504,-7927,4871
520,-6134,5895
-3576,-6135,6407
1032,-2806,7943
1032,-2038,7943
1032,-758,9991
2568,1546,11528
2568,2058,12296
2824,2570,13320
3080,4618,13832
3080,5642,12296
3848,5642,9480
3336,4874,3848
3336,4618,520
2312,3850,520
1544,1034,776
776,-1526,519
1544,-2038,-761
1287,-1782,-761
2055,-1782,-505
1543,-1782,-2041
2567,-2806,-4089
2311,-3318,-4089
3335,-758,-3577
3335,1034,-2296
3335,778,-1016
2055,-1526,775
-2808,-4087,1031
-4344,-7927,2567
-4600,-9719,2567
-3320,-11511,2567
-2552,-12791,2567
-2040,-13047,2055
-2040,-12279,1799
-2040,-12279,1799
-2296,-12791,2055
-1272,-12791,2311
-760,-12023,2055
-248,-10743,2055
-1016,-10743,2055
-2040,-11767,1799
-3576,-12279,-249
-2809,-9207,-6393
-2553,-5367,-7929
-2041,-5111,-5113
-6649,-13303,-4857
-11769,-24567,-4345
-15865,32521,-8953
-16377,29705,-15865
-18425,32009,-19705
-18169,-28407,-25337
-17145,-19959,19463
-20729,-18167,9735
-8697,11017,15624
1286,-22774,10248
18694,18698,11785
-29178,-16374,12553
-16122,-4342,10505
-7418,-4342,11017
-3322,-13302,14857
-506,-16886,14601
262,-19445,19721
-2042,26122,32009
-7418,-6390,-22008
-16634,26122,-11000
-23034,-5110,2567
-30969,29194,15367
29447,6922,27399
24583,-7926,-24826
19207,-13814,-14074
13575,-12278,-5626
9735,7690,-2809
5895,26122,-1785
3591,-31734,2567
776,-25846,6663
-248,-18935,8711
-248,-13303,10503
-4344,-13559,11527
-1784,-9975,15111
-1784,-8951,15111
-1016,-6391,15367
-1272,-6135,16647
-2040,-7159,18439
-2040,-7415,18439
-2040,-6391,18183
-1784,-6135,18951
-1272,-6135,21255
-1272,-5879,22279
-1272,-5623,22023
-1272,-5623,22791
-1272,-5367,24839
-1272,-5367,26375
-504,-5879,26631
-760,-5879,26887
-1016,-5623,28679
-1528,-6903,30727
-504,-7159,31239
-760,-7159,32263
264,-7158,-31737
520,-7158,-29177
776,-7158,-27897
520,-7414,-27385
-3320,-7927,-27129
-248,-9207,-24313
-504,-9975,-23545
264,-9974,-22777
1032,-9974,-21753
8,-10742,-19961
8,-11510,-19449
8,-12278,-19705
-248,-12791,-19193
-760,-13303,-17913
-760,-13303,-17913
-1016,-13815,-18169
-760,-13815,-18169
-504,-13559,-17913
-1016,-13559,-17913
-760,-13559,-17913
-1272,-13303,-18937
-1016,-13559,-19193
-1016,-13303,-19193
-1016,-12791,-19705
-2040,-12791,-20729
-2040,-12791,-21753
-2040,-12535,-22009
-1272,-10999,-22777
-1272,-9975,-23545
-4344,-9975,-24825
-2296,-9719,-26617
-1784,-8695,-27897
-1272,-6647,-29433
-248,-5111,-31481
-504,-4599,32263
-760,-3575,30215
-504,-2039,27655
-760,-759,25607
-504,-247,23047
-248,9,21256
-248,1801,19208
8,2826,17160
-248,3081,15368
-1528,2569,14088
-1016,2569,12040
-760,3337,10504
-760,3081,9224
-1016,3081,8456
-760,3081,7944
-760,2569,7176
8,2314,6152
-760,1033,5640
-1016,265,5128
-504,9,4872
-2040,-247,3847
-248,-1271,4103
-248,-1527,4103
-1016,-3319,4103
-760,-4599,3591
-760,-4855,3847
-760,-4599,3847
-1016,-5623,3847
-1016,-6391,4103
-1272,-7671,3591
-1272,-7927,3591
-1528,-8183,3847
-1784,-8695,4103
-1528,-9719,4359
-2040,-10487,4615
-1784,-10487,4359
-2040,-10487,4103
-1016,-10231,4103
-760,-10743,4103
-760,-10743,4359
-1272,-10743,4359
-1016,-10743,4103
-1784,-10999,4103
-1784,-10999,4103
-1784,-11255,4103
-4344,-10999,3335
-2296,-11255,3591
-2552,-11255,3079
-2552,-10999,3079
-1272,-10999,2823
-1016,-10999,3335
-1272,-10999,2823
-1272,-10743,2823
-1016,-10231,2311
-760,-10231,2311
-1016,-10231,2823
-1272,-10487,2567
-1016,-9975,2567
-1016,-9463,2311
-760,-9207,2055
-248,-8951,2567
-504,-8951,2311
-504,-8951,2311
-1528,-9463,1799
-760,-9719,1799
-504,-9463,2055
-248,-8695,1799
-1016,-8439,2055
-1016,-9207,2311
-760,-9975,2055
-1528,-8695,1543
264,-8438,2311
-504,-8439,2311
-760,-8695,2311
-504,-9463,2055
-504,-9463,2055
8,-8694,2311
-504,-8183,2311
264,-7670,3335
1032,-6134,4615
1288,-4086,5383
1288,-2550,5895
1544,-1782,6663
1288,-1014,8455
1544,10,9224
1800,1802,10760
3080,3082,11528
2824,4106,11016
2568,4362,8456
3080,4362,3080
3080,3850,-504
3079,3594,-1272
1287,1546,-1272
775,-1270,-2297
775,-3574,-3065
-1529,-3319,-3577
519,-2806,-2809
1287,-2550,-3577
1799,-3830,-4857
2311,-4854,-5625
1799,-3318,-5625
3335,-246,-4089
3079,522,-2808
1799,-1782,-1273
-1273,-6391,519
-3576,-8183,1031
-4088,-9207,1287
-3832,-11767,1287
-3576,-14327,1287
-3064,-14071,1031
-2552,-13047,519
-2552,-12791,263
-3320,-14071,775
-4088,-15351,1031
-3832,-14327,775
-3832,-13559,519
-3832,-13559,519
-3576,-13815,775
-3320,-13815,-761
-4089,-11767,-5881
-5113,-8695,-8697
-4601,-5879,-7161
-7161,-10999,-6393
-10745,-22263,-6137
-13561,-31479,-7161
-17913,28425,-14329
-18425,28937,-19705
-18169,-31735,-23545
-17145,-24311,28935
-17145,-14583,-5113
-12282,1801,22792
-3322,29193,12296
12550,3594,13321
29190,-26102,11017
-22778,-8950,9993
-10490,-4598,10249
-3322,-9974,12809
-1274,-16630,13833
-1274,-18166,15881
-1530,-30966,25097
-4346,5898,-27127
-13050,-29430,-14840
-23546,4106,-3320
-29434,-27382,8967
30727,12554,21511
28423,7434,25351
19463,-14838,-17402
14343,-15606,-9978
10503,-1782,-4858
7175,18698,-2553
1287,28682,1031
-1272,-30199,3335
-1272,-23287,5895
-504,-16887,9479
-1528,-12791,12551
-1272,-10999,13575
-1272,-8951,13319
-1272,-7927,14087
-2552,-7671,15623
-2552,-7927,16647
-2296,-8183,16391
-2040,-7671,16647
-2040,-7415,18695
-2808,-7415,19719
-2552,-7671,19463
-2808,-7671,19975
-2040,-7415,21511
-2040,-7415,22791
-2040,-7927,23047
-2552,-8183,23559
-2552,-7159,23303
-2040,-7927,27655
-1272,-8183,28167
-1528,-8183,28679
-1272,-8951,30471
-1784,-9207,-32505
-1528,-8951,-31737
-1528,-9463,-31481
-1016,-9463,-29689
-1272,-10743,-27385
-1272,-10999,-26361
-1272,-11255,-25849
-1528,-12023,-25081
-1784,-13303,-23033
-1784,-13303,-21753
-760,-13047,-22009
520,-12790,-22009
776,-12790,-20729
-504,-14071,-19961
-1528,-14839,-20217
-1784,-14839,-20217
-504,-14327,-20217
8,-14326,-20473
-760,-14583,-20729
-1528,-14327,-20473
-1528,-12791,-22265
-1528,-14071,-22009
-1272,-13815,-22265
-2040,-13815,-22009
-2296,-13559,-22521
-2552,-13559,-23545
-1528,-12535,-25337
-1528,-12023,-25849
-1528,-11511,-25593
-1784,-11255,-26873
-1528,-9975,-29689
-1528,-8439,-30457
-1528,-7415,-31225
-2296,-7671,32519
-2296,-6391,29703
-1528,-3831,27655
-504,-2039,26631
-760,-1783,24583
-1016,-1271,21767
-760,521,19720
8,2058,18952
-248,2057,17160
-248,1801,14600
-248,3081,12296
-760,3593,12040
776,5642,10760
1032,3850,9224
264,3850,7432
-504,3593,7688
-248,3337,7432
-248,2313,5896
264,2058,4104
-504,1545,4104
-504,777,4872
8,-246,4615
1544,-246,3847
776,-758,3847
264,-1782,3847
-1016,-3063,4359
-1016,-4087,4103
8,-4598,4103
264,-4854,3847
-1528,-7159,3847
-1528,-7927,3847
-1528,-7671,4359
-1272,-8183,4615
-1016,-8951,4871
-1272,-9975,5127
-1784,-9975,5127
-1528,-10231,4871
264,-9206,4359
-760,-11767,5639
-1016,-11767,5127
-2040,-12023,5127
-2040,-12535,5383
-2040,-13047,5639
-1272,-12535,5383
-2040,-12791,4871
-2296,-12791,4103
-2040,-12791,4359
-1272,-12535,4103
-1784,-12535,4359
-2040,-12023,4359
-1784,-12023,4359
-1272,-11767,3847
-1016,-12023,3335
-1016,-11767,3335
-2040,-11767,3335
-1272,-11255,2823
-1272,-11255,2567
-1016,-11255,2311
-1528,-11255,2311
-1272,-11511,2567
-1016,-11511,2567
-1272,-10999,2823
264,-8438,519
-1784,-10231,1543
-1272,-10743,1799
-1272,-10999,2311
-760,-10743,2311
-1016,-10231,2311
-248,-9719,1799
-760,-9719,1543
-1272,-10487,1287
-1784,-10743,1031
-1272,-10231,1031
-1272,-9975,1799
-1272,-9719,2055
-2296,-10487,1287
-1528,-10743,1031
-1272,-9719,1799
776,-7158,3079
776,-6390,3591
776,-6134,4103
776,-4086,5383
776,-1526,6663
776,-246,8199
1288,-246,8455
1544,-502,8967
1800,1802,10504
3848,5386,9992
3336,4618,6920
3080,3338,2056
2824,2314,-1016
2567,2826,-1784
1543,2058,-2040
1799,-1014,-3833
775,-4342,-4089
-249,-4599,-3833
7,-3318,-3833
1799,-3062,-4857
1799,-4598,-5881
2055,-5110,-6649
1287,-3830,-6649
2311,-1526,-5113
3079,-758,-3577
3335,-1526,-2809
-1017,-5879,-1273
-4089,-8951,-505
-4857,-10999,519
-4600,-12791,519
-4344,-14071,7
-3064,-14071,-505
-2297,-14071,-505
-2553,-13815,-505
-249,-11255,-1785
-2553,-13815,-505
-2041,-13559,-505
-2553,-13815,7
-2552,-13815,7
-2808,-13815,-249
-3065,-13303,-1273
-3833,-12535,-5113
-4345,-10743,-9977
-4089,-7671,-9209
-4345,-7927,-7929
-8953,-17911,-6649
-12281,-30199,-7161
-16377,27913,-14329
-18937,28937,-20729
-18937,-32247,-23289
-16121,-27127,-32249
-16377,-18167,2567
-13561,-3831,27143
-6394,22025,13320
9222,-6390,13320
26886,31754,10761
-23802,-10486,9737
-11770,-1526,10761
-4346,-6646,12041
262,-8181,12041
6,-18165,12809
-1018,-24566,20233
-4346,13322,-31223
-12282,-23798,-17912
-20986,9994,-7672
-27386,-19702,3847
30727,17674,17415
26119,-3318,32518
20999,-15094,-20730
16903,-15094,-13562
11527,-4854,-6906
7431,14602,-3065
3591,27402,-1017
1287,-29430,1287
264,-21750,4615
264,-17142,8199
-1784,-14839,10759
-1784,-11255,11015
-1784,-9207,11527
-2040,-8695,13319
-2808,-8439,15367
-2808,-8695,15111
-2808,-7927,15367
-2808,-7927,16135
776,-5110,16135
-1784,-7159,18183
-2552,-7159,18439
-3320,-7671,18951
-3064,-7671,20743
-2808,-7415,22023
-1272,-7415,22023
-1272,-7415,22535
-1784,-7415,24839
-2808,-8183,26375
-1784,-7671,26887
-1528,-7927,27911
-1528,-7927,29959
-2040,-8183,32007
-2296,-9207,32263
-2552,-9975,-32761
8,-9974,-31225
-504,-9719,-28665
-760,-9719,-28153
-1016,-10231,-27129
-1016,-10999,-25593
-1016,-11767,-23801
-248,-12023,-23289
-1272,-12535,-23033
-1272,-12791,-22009
3080,-10998,-22009
-760,-13559,-20729
-1784,-13559,-21241
-2808,-14583,-21241
-2808,-15095,-20473
-2808,-15607,-20473
-2296,-15351,-21753
-2040,-14839,-21753
-2040,-14327,-22009
-1528,-13303,-21753
-504,-13047,-22265
-1272,-13047,-23545
-1272,-13047,-24057
-2296,-13303,-24057
-2296,-12535,-24569
-2552,-11767,-25593
-2808,-11767,-27129
-2808,-11255,-27897
-1528,-9719,-29177
-1016,-7927,-30969
-504,-6903,-32249
-1016,-6391,31495
776,-4342,30215
1288,-1526,28935
1288,10,27144
6152,2826,25352
4872,3338,24584
5128,6410,23048
4872,8202,21256
5640,8714,19208
5640,8714,17672
4872,7946,15880
2568,5898,14600
1800,3850,13576
2056,2826,13832
2824,3594,13576
1032,3594,13576
776,3594,12808
264,3850,12040
776,3850,12040
1032,4106,12040
2568,4106,11528
1544,2570,8200
776,1034,3592
-1784,-3319,2311
-2552,-5879,1799
-2808,-7159,1799
-2808,-7671,1287
-4088,-8951,775
-3832,-9719,1287
1544,-7158,519
-504,-8695,1799
-1016,-8695,1287
-2808,-10743,1287
-3320,-12535,2055
-2552,-12791,2055
-2040,-12535,2311
-2296,-13047,2055
-2808,-14071,2311
-3576,-15095,2311
-3576,-15095,1799
-3576,-15351,2055
-2808,-14839,2055
-3320,-15095,2055
-3832,-16887,2567
-5624,-19959,2567
-5880,-21495,1543
-7672,-24055,1031
-7672,-26103,7
-8184,-25591,-1785
-7673,-19191,-3833
-5881,-7159,-7161
-1785,5641,-10488
1031,15114,-11512
2567,25610,-12024
7175,32522,-14584
3079,-20982,-20472
7687,-4086,-24312
15367,18186,-26103
24583,29194,-22775
-30457,18698,-10231
-23033,-4854,8456
-20216,-26358,22280
-19704,30218,28168
-17400,17162,-24568
-16632,-15862,-2809
-19704,9226,19207
-20215,-24310,-30202
-19959,14858,-17402
-17655,-6134,3589
-16630,-20470,20997
-16374,-22262,22533
-22774,-17654,19717
-29686,-16630,19973
-32758,-20470,22533
29962,-22518,22533
26378,-13814,21509
25098,6154,774
18442,-30966,25606
8457,-3062,-6394
9992,7178,-15353
2568,-24822,16647
520,-9206,-3321
-4345,-1527,-17401
-8441,777,-22264
-6905,2313,-24824
-5369,4873,-27384
-6137,4617,-27896
-9465,4105,-28152
-10489,4361,-28408
-7673,6409,-29944
-6649,7433,-30712
-7929,7689,-30968
-8953,7433,-31224
-8441,8201,-32760
-7929,8969,32520
-7673,9225,32008
-8953,8713,32008
-8697,8969,30472
-9721,8457,29960
-10489,7945,29704
-11257,7945,29448
-11513,7689,28168
-11257,7945,27400
-9209,8713,27656
-4089,12041,26632
-10233,9481,26376
-10489,8969,25864
-10745,7689,26120
-11769,6921,25864
-12281,6921,25608
-12025,6921,25352
-12281,6665,25096
-12793,5641,25096
-13049,5641,24840
-13305,5641,24840
-13817,5641,24840
-13817,5641,24584
-14073,4873,24328
-13561,5129,24328
-13817,5385,25096
-13817,5641,25352
-13817,5641,25096
-13817,5897,25096
-14841,5129,24840
-14585,4873,24840
-14841,5897,25864
-14841,6153,25608
-15353,5897,25352
-14329,6665,25096
-8953,9737,25096
-12537,8969,25864
-12793,9481,25608
-12793,9737,25864
-12793,9993,25864
-11769,11529,26120
-10489,12297,26376
-10489,12041,26120
-10489,11785,26120
-10489,12041,26632
-9209,12297,27912
-8185,12297,28424
-7161,12297,29192
-6393,12297,30472
-5369,12041,-32760
-5113,11529,-31480
-3833,10761,-30200
-3833,9225,-28408
-3577,8201,-26104
-3321,7433,-23800
-3321,5897,-22264
-3577,4105,-20728
-2297,3337,-18424
-2041,2569,-16376
-1785,1289,-15352
3847,2826,-15864
-505,-759,-12025
-505,-759,-10745
-761,-1271,-9977
-761,-2807,-8441
-249,-3575,-7929
-249,-4087,-7417
-249,-4343,-6905
-1017,-6135,-5881
-1273,-6903,-5625
-1017,-6391,-5369
-1017,-6391,-5113
-761,-6647,-4857
-1273,-6903,-4345
-1529,-6647,-4345
-1273,-7415,-4345
263,-7414,-4601
-761,-7671,-4345
-1273,-7927,-4089
-1273,-7671,-3577
-1017,-7671,-3577
-761,-7671,-3321
-249,-7415,-3321
-249,-7927,-3321
-249,-7671,-3321
4615,-5110,-3577
519,-8182,-2553
263,-8438,-2297
263,-7926,-2553
-1529,-8183,-1529
-1529,-8439,-1273
7,-8438,-1017
775,-8438,-1273
-761,-8439,-505
-761,-8439,-249
-249,-8695,7
264,-8694,7
264,-8694,7
8,-8694,7
8,-8694,7
8,-8438,263
-248,-8439,519
-248,-9207,775
-248,-8951,775
-248,-9207,1031
8,-8950,1031
-504,-9207,1031
-248,-9463,1031
-248,-9463,775
264,-8438,1031
5640,-5622,775
776,-8182,1031
8,-8438,1031
8,-8438,1799
-760,-8695,1799
-760,-9463,1799
-504,-9975,1799
8,-9718,1543
-504,-9975,1799
-504,-9463,1543
-504,-8951,1799
8,-8950,1799
264,-8694,1543
264,-8694,1543
264,-8182,1287
264,-7926,1543
776,-8182,2055
520,-9206,1799
8,-9206,2055
-504,-8951,2055
-248,-8439,1543
8,-8182,1799
520,-8438,1543
-248,-8951,1543
-248,-8695,1543
5384,-6134,1031
776,-8694,2055
1032,-8438,2055
1288,-8694,2055
264,-8694,1799
1032,-7670,2055
1032,-7670,2311
776,-8694,2311
-248,-8695,2055
-248,-8695,2311
-248,-8695,2311
264,-8950,2311
264,-8950,2311
264,-8694,2311
-504,-8695,2055
-504,-8439,2311
1288,-7158,2823
2056,-5366,3335
2056,-3830,4359
1544,-3574,5895
1800,-1782,6663
2312,10,7944
3592,1034,8968
3080,1290,10760
2824,2826,11784
7944,5898,11016
4872,5642,7944
4872,5386,3336
4616,4106,8
3592,3850,-1016
3079,2826,-1272
3079,10,-1528
2823,-2038,-2041
519,-3318,-1785
1287,-2550,-2041
2567,-2806,-3321
2823,-4342,-4857
2823,-4854,-5369
3335,-2550,-5113
3591,522,-3832
4103,778,-2552
3335,-1782,-1273
7,-5110,7
-3320,-7671,1287
-4344,-9719,1543
-3832,-13303,1799
-4088,-15095,1543
-2296,-14839,519
-1528,-13047,775
-1528,-12535,1799
3336,-11254,1799
-1272,-13559,1543
-1016,-13047,1031
-1528,-13303,1031
-2808,-13303,1799
-2808,-13047,1543
-3064,-13303,-2297
-3321,-12023,-8441
-4345,-8183,-7929
-4089,-6647,-5113
-6649,-15351,-4345
-9977,-26615,-4857
-14329,31241,-11257
-16889,30729,-18681
-17145,-31735,-22521
-16377,-28407,-28921
-15353,-18935,15111
-12793,-4087,-25849
-6650,16393,14600
5638,-15350,13064
22534,26122,11273
-27386,-13046,9737
-13050,-4854,10761
-3066,-6646,13065
-250,-14838,15113
4870,-14581,14857
774,-20213,19721
-250,21258,-32503
-8698,-15862,-19192
-19706,17418,-8184
-25082,-11766,3335
-30713,25610,15367
29447,1802,30215
22535,-12022,-21498
18183,-15094,-13050
14343,-8694,-6394
9735,9738,-3065
4103,25098,-249
2055,-31222,2823
1800,-24054,5895
1288,-19702,8967
-1016,-16119,12295
-2040,-12279,13831
-2040,-10231,13831
-2040,-9975,13575
-1784,-9463,15623
-2296,-8439,17159
-1784,-7415,16647
-1272,-7415,16903
-1528,-7671,17927
3080,-6134,18183
-2296,-7927,19463
-1784,-7927,19975
-1784,-7927,20743
-1784,-7927,22535
-1272,-7415,23303
-1016,-7159,24071
264,-7158,25351
8,-6902,27399
8,-7414,28679
-760,-8183,28935
-504,-8695,30215
-248,-8951,31751
-248,-8951,-32249
-1272,-9207,-31481
-1016,-9207,-30201
264,-9974,-27897
264,-10742,-26873
264,-10998,-26105
8,-11510,-25081
-248,-11767,-23545
8,-12278,-22009
776,-12534,-22265
8,-13302,-22009
-504,-14327,-20985
3848,-13302,-20729
-248,-14327,-20217
-248,-14583,-20217
-760,-15351,-20217
-1784,-15607,-19449
-1016,-14583,-19449
-1016,-13559,-19449
-248,-11767,-19449
-248,-9719,-19449
-248,-8695,-19449
-504,-8951,-19193
-504,-8695,-19705
-1784,-9207,-19961
-3064,-9463,-21497
-3832,-8439,-21497
-2808,-5367,-21497
-1528,-759,-21497
-760,3081,-23032
-504,6409,-23032
520,9226,-23032
2056,13322,-23032
3592,16138,-22776
3848,15370,-24056
2824,12298,-24824
776,9482,-26104
4616,9738,-26616
-1272,5385,31752
-1016,5385,24840
-1272,4361,21256
-2808,2313,20232
-1784,2057,17416
-504,2313,15112
520,2058,13576
-1272,1545,13064
-1272,1289,11528
-1272,1545,10248
264,1290,9480
520,522,9224
8,-246,8199
-1016,-759,7687
-1016,-1783,6663
-504,-2551,6407
264,-2550,6663
8,-3062,6407
-1016,-4087,5895
-1016,-4855,5383
-1016,-5111,5895
8,-5878,5895
-248,-6903,5895
-760,-7927,6663
3848,-6902,6919
-760,-8951,7175
-504,-9975,7431
-1016,-11255,7175
-2808,-12791,7431
-2552,-13303,8199
-2040,-14583,8455
-1784,-16119,8711
-2808,-17143,8455
-2552,-17143,8711
-2552,-16887,9735
-2296,-18167,9479
-2296,-19703,9479
-2552,-19703,9479
-3064,-19703,9479
-3320,-20471,9479
-3064,-21239,9735
-2552,-21239,9223
-3064,-20471,8967
-2808,-20215,9223
-3320,-20471,8967
-3064,-20727,8455
-2552,-20215,7687
-1784,-19447,7943
-1784,-19191,7687
2568,-17654,7431
-1528,-18423,7431
-1528,-18167,7431
-1528,-18167,6919
-2296,-17911,6151
-2296,-17911,5895
-2296,-18167,6151
-1016,-16375,6151
-1016,-16375,5895
-1016,-16631,5127
-2040,-16119,5383
-2296,-15607,5127
-2296,-15351,5127
-1272,-15607,4359
-1272,-15607,4103
-1528,-15095,4359
-1528,-14071,5127
-1016,-13559,5383
-1016,-13559,4871
-1272,-13815,4103
-2552,-14071,4103
-2552,-13815,4615
-1016,-12791,4871
-1016,-12535,4615
-1784,-12279,4359
2312,-11766,4103
-1272,-12791,4359
-1528,-12791,4103
-1272,-12279,4359
-1272,-11767,4359
-1272,-11511,4615
-1272,-11511,4359
-248,-11255,4359
-248,-11255,4615
-760,-10999,4359
-1272,-10743,4359
-1272,-10743,4103
-1272,-11255,4103
-1272,-11255,3847
-1272,-10743,4103
-1272,-10743,3847
-760,-10487,4103
-760,-10487,4103
-1528,-10743,4103
-1784,-10743,4103
-1528,-10743,3847
-1528,-10487,3335
-1016,-9719,3335
-1016,-9975,3591
-760,-9975,3847
3592,-9206,3847
-504,-9207,3847
-760,-9207,3847
-1016,-9207,3591
-1272,-9207,3591
-1272,-9207,3591
-1272,-9719,3335
-248,-9719,3591
-504,-9463,3591
-1272,-9207,3591
-2040,-8951,3591
-1272,-9207,3591
-1016,-9463,3591
8,-8694,3847
8,-7670,3847
264,-7670,3591
8,-9206,3847
264,-8694,3591
-248,-8183,3847
-1272,-8183,3335
-1272,-8183,3079
-1272,-8695,2823
-504,-8695,3079
8,-8182,3079
-248,-7671,3079
3848,-7670,3079
8,-8182,3079
8,-7926,3591
-504,-7671,3335
-1272,-7671,3335
-1272,-7671,3079
-760,-8439,3591
264,-8694,3847
8,-8438,3847
-1016,-8183,3591
-1528,-8695,3591
-760,-8695,3335
-504,-8183,3591
264,-7414,4103
520,-6902,4359
776,-7414,3591
-504,-8951,3335
-504,-8695,3335
-248,-7671,4103
-1528,-8439,4103
-2040,-9463,4103
-1784,-9207,3591
-1272,-8695,3591
1032,-6646,3591
776,-6902,3591
3848,-6646,3591
-248,-7415,3591
8,-8182,3847
-248,-8183,3847
-1272,-8183,3847
-1528,-8183,4103
-1016,-8439,3847
-248,-8183,4103
-1016,-8439,4103
-760,-8183,3847
-760,-7927,4359
-760,-7671,4103
-760,-7671,4359
8,-7670,4615
-248,-7415,4615
-760,-7415,4103
-1016,-8695,3591
-504,-8439,3591
-760,-8439,3847
-504,-7671,4103
-504,-6903,4615
-248,-7159,4359
-504,-7415,4615
-248,-7415,4103
-504,-7159,4359
3592,-7414,4103
8,-7414,3847
-248,-7415,4103
-1016,-7415,4359
-1016,-7927,4103
-1016,-8183,4103
-1272,-7927,4103
-760,-7415,4103
-504,-7927,4359
-248,-7927,4359
-1016,-8183,4359
-1016,-7415,4359
-1016,-7415,4359
-504,-7159,4359
-1272,-7927,4359
-1784,-8439,4359
-2040,-8439,4103
-1272,-8183,4359
-1016,-7671,4871
-504,-7415,4615
-248,-6903,4871
-504,-6903,4359
-1272,-7671,4359
-504,-7671,4359
-504,-7159,4615
3080,-6902,5383
-248,-6903,5127
-248,-6903,4871
-760,-6903,4615
-1272,-7671,4615
-1272,-7415,4615
-248,-7159,5639
264,-6646,5383
264,-6902,4615
8,-6134,4871
-760,-6647,4871
-760,-6903,4871
-1016,-7415,4871
-1272,-7671,4615
-1272,-7671,4615
-504,-6903,4359
-248,-6903,5127
8,-6646,5127
-1272,-6903,5383
-1016,-7159,5383
-248,-6647,5383
-248,-6647,5383
-248,-6903,5127
264,-6902,5127
520,-6646,4871
3336,-6902,5127
-760,-6647,5127
-504,-6647,5127
-504,-6647,4871
264,-6902,4871
264,-6902,4871
8,-6902,5383
-248,-6903,5127
264,-6134,5127
776,-4086,6663
1032,-3062,7943
2056,-1270,8711
2056,10,9224
2824,2314,10504
2824,3594,12296
2568,3594,13832
2056,3850,14856
3336,5898,14344
4104,7178,12808
4616,7690,8968
3848,6922,4360
3848,6154,2056
2568,4874,2312
2312,2058,2312
1544,10,1288
3592,-1014,1287
776,-758,1543
2056,-502,1543
2056,-758,-249
3079,-1526,-2041
3847,-1270,-2297
3847,522,8
4104,2826,1800
3592,2314,2056
1032,-2294,2311
-2040,-6135,4359
-4600,-7671,5895
-4856,-8951,5895
-3320,-11511,4871
-2808,-13047,3847
-1784,-11767,4615
-2040,-10231,5895
-1016,-9975,5895
-1016,-10999,5639
-1016,-11511,4615
-2296,-10999,5383
-2296,-10487,5383
-1528,-10743,5383
-1528,-10743,4359
-3320,-8951,-1529
-2041,-8695,-2809
-3065,-3831,-1273
-4601,-8951,263
-10744,-20727,775
-15608,-30711,-3321
-17401,31241,-12537
-17913,-32247,-17913
-17657,-26871,-22265
-15353,-16375,27143
-13305,-4343,-11001
-7674,12041,21000
2310,-22262,11272
18182,21002,10505
-28922,-13302,11785
-15354,-3574,11529
-5882,-3318,13577
-2554,-9206,18185
6,-10741,16905
1286,-13045,20233
-250,29450,-32247
-6650,-5110,-18424
-15098,27914,-7672
-22522,-4086,4103
-28921,30986,16135
28935,6666,30471
28679,-502,-28410
19207,-14582,-11002
15879,-11254,-3322
10247,7946,7
6152,26122,2055
3336,-31222,5639
2568,-25590,8711
776,-19702,11783
-760,-14327,14087
-1528,-10999,16135
-1016,-10743,16903
-1016,-9463,16903
-1272,-7159,18183
-1272,-6135,19463
-1528,-6903,19463
-1528,-7415,19207
-1272,-6647,19975
-1272,-5623,21511
-1528,-5623,22535
-1528,-6135,22791
-1784,-6391,22791
-760,-5623,23559
-504,-5367,25095
-504,-5367,25607
-1016,-6135,25351
776,-7158,26887
-248,-5879,27911
264,-6134,29191
8,-6390,29191
520,-6390,30215
264,-6390,32007
1032,-6390,-31737
2056,-6646,-30969
2056,-7414,-30713
2312,-7158,-28153
2312,-7158,-27129
2312,-7158,-26617
2568,-7414,-26105
3080,-7414,-24825
3336,-8438,-23289
3592,-8950,-23033
3336,-9974,-22777
3336,-9974,-21753
3336,-9974,-20729
3080,-10742,-20729
2056,-10998,-20473
1288,-11766,-20729
776,-12278,-20473
1800,-12278,-20217
1544,-11510,-20217
3080,-11766,-19705
2568,-10742,-21241
2312,-11510,-21497
-248,-11511,-21497
-248,-11255,-22521
776,-11254,-23033
776,-10742,-23801
520,-9974,-23801
8,-9206,-24569
-248,-8951,-25849
-248,-8951,-26617
-248,-8439,-27385
8,-7414,-27897
-248,-6391,-29177
-504,-5879,-29945
8,-4086,-30713
1032,-2294,-31225
2824,-246,32519
2568,522,31240
2568,1546,29960
2056,3082,28936
2568,4362,27144
2568,4618,25608
2824,5386,24584
2568,6666,23048
3080,6154,23304
2568,8714,19976
2568,8714,18440
2056,8970,17672
1800,9738,15880
1544,9738,15112
1800,9482,14344
2056,9482,14088
2824,9738,13064
2312,9738,11784
2056,8458,11528
1544,7690,11528
1288,6410,11016
1032,5642,9736
1032,4618,9992
1032,4106,9992
264,2570,9992
776,1546,10248
776,1034,10248
776,-246,10247
8,-1782,10503
8,-2806,10759
8,-3830,11527
1288,-4086,11527
776,-5622,11783
776,-7926,12295
-1528,-8183,12551
-1784,-8951,12551
-1528,-10743,12551
-1272,-11767,12807
-2552,-12535,12807
-2296,-13047,12551
-1784,-13559,13319
-760,-13815,13575
-1016,-13559,13319
-1784,-13559,13575
-1528,-14327,13575
-1528,-15607,13319
-1272,-15607,12807
-1784,-14583,12295
-2808,-14839,12295
-3064,-15351,12039
-1528,-15351,11527
-1272,-14839,11527
-1528,-13303,11271
-1784,-13559,11015
-1528,-13815,10247
-1016,-13559,9991
-504,-13303,9479
-1272,-13303,9735
-1272,-15095,9991
-2040,-13303,8967
-1784,-13559,9223
-1272,-12535,9223
-1016,-12023,8711
-2040,-12535,8455
-2040,-12535,7943
-2040,-12791,7687
-2296,-12791,7431
-1528,-11255,7431
-1272,-10487,7687
-1272,-10743,7431
-2296,-11511,7175
-2296,-11511,6407
-1016,-10743,6407
-504,-9975,6407
-504,-9719,6407
-504,-9719,6663
-760,-9719,6663
-760,-9975,6663
-1272,-10231,6663
-1272,-10231,6407
-1528,-10231,6151
-1272,-9975,6151
-504,-9719,6151
-248,-11255,6919
-504,-7415,6919
264,-6390,8711
264,-4854,9223
1800,-2294,9223
2568,-758,10503
2312,10,12808
1544,-246,14087
2056,1034,14600
1800,3594,14856
2056,3850,14088
3080,4362,11016
3592,4874,5640
3592,4618,1800
4104,4362,1800
2824,1034,2824
2312,-1782,2311
1544,-2038,1031
1544,-2038,519
2312,-1782,775
2568,-2294,7
2312,-3318,-2041
2567,-3574,-3065
3335,-1526,-1529
3591,10,264
3336,-502,1799
1032,-1782,2055
-760,-5623,4103
-2552,-7927,5127
-2552,-8951,4871
-2808,-11255,4359
-3064,-13815,3847
-3064,-14071,3847
-1528,-12023,3847
-1784,-11767,3591
-2040,-13047,3847
-3064,-13303,4103
-3064,-13303,4359
-3064,-13047,4359
-3320,-13303,3335
-3320,-13559,3335
-2808,-12023,3335
-3064,-9463,-2041
-3065,-7415,-5881
-2297,-4855,-4345
-4345,-8439,-2297
-9465,-19191,-1529
-13561,-30199,-3321
-15353,29449,-11769
-16633,31753,-17913
-18169,32009,-17401
-17657,-21751,30727
-15353,-11767,-4089
-11258,4617,23048
-1786,-32247,12040
12294,6922,13321
30470,-23542,12297
-20730,-6134,9993
-8186,-1782,9993
-2554,-8694,14345
262,-16629,16393
2566,-17653,18697
2566,-30197,28169
-2042,4362,-23287
-11258,32522,-11000
-19962,522,776
-27129,-29430,12807
31495,11018,25351
27399,-8182,-25082
21767,-16630,-13818
16903,-14582,-6650
12295,1546,-2041
7175,21002,775
4104,30730,4615
2056,-27382,7175
1032,-25846,8711
776,-14326,12807
8,-12022,15879
-1016,-9975,16391
-1016,-7415,16647
-1016,-6135,17159
-1528,-6647,19207
-1528,-7159,20231
-1272,-6647,20487
-1272,-5879,20487
-1272,-5367,21511
-1528,-5367,23303
-1528,-5623,23303
-1272,-5623,23303
-504,-5623,24583
-1016,-5879,26119
-1016,-5623,26887
-760,-5367,27655
-760,-5367,28423
-760,-6135,30471
-1528,-6647,31495
-1272,-6647,31751
-760,-6647,-32249
-248,-6647,-29945
8,-7158,-28409
-1272,-9463,-27385
-1016,-7927,-26617
-1016,-8951,-24825
-1016,-8951,-23033
-248,-9463,-22265
-248,-9975,-21753
-504,-10487,-20217
-248,-10743,-18169
-248,-11511,-18169
-504,-12279,-18169
-248,-12279,-17145
-1272,-12791,-15609
-1016,-13047,-15865
-1272,-13815,-16121
-1272,-14071,-16377
-1528,-14071,-16121
-1528,-14327,-16121
-1784,-14583,-15865
-1784,-13815,-16121
-1272,-13559,-16377
-1528,-13303,-17145
-2040,-13559,-17657
-2040,-13303,-17913
-1784,-13303,-18169
-1528,-12023,-19193
-2552,-13303,-19193
-1528,-10999,-21241
-504,-10487,-21241
1032,-8182,-22265
3336,-4598,-24313
3592,-2550,-24057
3592,-502,-24825
3336,2314,-26616
3848,4618,-29432
1800,4618,-30200
264,4362,-30968
8,4618,-32504
-248,4361,30216
-248,4105,28680
520,4362,27912
520,4618,26376
520,4618,24584
1800,6410,23304
3080,7946,22792
2312,6922,19464
776,5386,13064
-248,3593,9992
-1016,1545,9736
-1016,265,9480
-1528,-1015,7175
-3832,-3831,6919
-2296,-3063,5383
-1784,-4087,5383
-1528,-3831,5127
-1272,-4087,3847
-1016,-5623,3847
-1272,-6903,3847
-1272,-6647,4103
-1272,-6391,3847
-1528,-8183,3847
-1528,-9207,4103
-2808,-9207,4359
-2808,-9463,4359
-2040,-9975,4103
-1016,-9975,4871
-1016,-9719,5127
-1016,-9719,5383
-1784,-10487,5383
-1784,-11767,5127
-1784,-11767,5127
-1784,-11511,5383
-2552,-12279,5639
-3320,-14071,6151
-4856,-16375,6151
-6392,-18423,5895
-9208,-22007,6407
-8952,-24311,4615
-9208,-26103,4359
-8184,-22519,2311
-6136,-13303,-761
-3577,-759,-4089
-1017,9993,-6136
1543,19466,-6904
3079,29706,-9208
1031,-28406,-12536
1287,-17142,-16120
7943,3594,-19959
20231,26122,-22007
31495,30218,-15095
-26105,12810,2057
-22776,-13302,20488
-19448,-30710,29448
-16632,25866,-28664
-16376,5386,-11768
-19960,31498,12551
-20727,-9718,-31482
-19959,24586,-17914
-19959,-758,-1787
-19959,-14838,15365
-19702,-16630,20485
-21750,-19702,21765
-24310,-22262,22021
-31734,-19446,21765
32522,-17398,21509
32266,-16118,21765
30730,-3830,18437
25098,18442,-10490
14089,-19958,16134
6665,7690,-12793
2824,31242,32007
-1272,-18679,14343
-5624,-6647,-4857
-7161,-247,-16889
-7161,2057,-20216
-7929,2825,-20216
-9977,2825,-20984
-9721,3593,-23288
-8185,5385,-24824
-7673,6153,-24824
-9465,6153,-24568
-9465,5897,-25848
-9721,6153,-27384
-9977,6665,-27384
-10489,6409,-27640
-11257,6665,-27896
-14329,3849,-27640
-11513,6921,-29944
-11513,7433,-30200
-11257,8201,-30456
-11001,8457,-31480
-11001,8457,-32760
-11001,7945,-32760
-11513,7689,-32760
-11513,7945,32008
-11513,7689,31496
-12281,7177,30984
-14073,6665,30728
-13817,6409,30472
-13049,6409,29960
-12281,6409,29448
-12793,6409,29192
-13561,5897,28936
-13817,5897,29192
-12793,5641,28680
-13049,5641,28936
-13561,5641,28680
-14329,5641,28168
-14073,5897,28168
-14073,5897,27912
-14073,5897,27912
-17657,3337,28680
-15353,5641,28168
-15353,5897,27912
-15097,6153,27912
-15097,6665,27912
-15097,6921,28424
-14585,7177,28424
-14073,7945,28680
-13305,8713,28936
-12793,9993,28936
-12281,11017,28680
-12281,11529,28424
-11001,12041,28424
-10489,12553,28680
-10233,13833,28424
-9977,14345,28168
-9977,14089,28424
-10233,13833,28936
-9465,14089,29448
-8441,14345,29704
-5881,14857,30472
-5625,15369,32264
-5369,15369,-32248
-4601,14601,-30968
-3321,13321,-29432
-6137,10761,-27384
-2809,11529,-25592
-3321,10249,-23544
-2041,8969,-22008
-505,8457,-19704
-505,7177,-17400
-1273,5641,-15352
-1017,4105,-13816
-505,3337,-12280
-249,2057,-10232
-249,521,-8952
-1017,-503,-7673
-505,-1015,-6137
-505,-2039,-4345
775,-3574,-3321
519,-3830,-3065
-761,-4343,-2809
-1785,-5879,-1785
-1017,-6135,-761
-761,-6391,-761
-1017,-6135,-761
-1017,-6135,263
-760,-6647,519
-760,-7415,775
-504,-6903,775
-4088,-8439,2055
-1272,-7415,1287
-1528,-8183,1543
-1272,-8439,1287
-760,-7415,1287
-760,-7159,1031
-1528,-7671,1543
-2040,-8439,2055
-1016,-8183,2055
-1272,-7927,2311
-1272,-8183,2311
-1784,-8183,2055
-1528,-8695,2567
-1784,-8951,3335
-1272,-9463,3591
-1016,-8951,3591
-1016,-8439,3847
-1016,-8183,3847
-1016,-8439,4103
-1272,-9207,4103
-1016,-9463,4103
-1784,-9463,4871
-2296,-10231,5127
-2808,-10999,5127
-2552,-11255,5127
-6648,-13559,5639
-2040,-10487,5639
-1272,-10487,5895
-1528,-10231,5895
-1016,-9463,5895
-248,-9207,5639
-760,-9719,5895
-1272,-9975,6151
-1016,-10231,5895
-760,-9975,5639
-760,-10231,5639
-1016,-9463,5895
-1016,-9463,5639
-1784,-9719,5639
-1016,-9975,6151
-504,-9719,5895
-504,-9207,5639
-248,-8695,5639
264,-8438,5639
264,-8438,5639
1032,-8438,5639
264,-8182,5639
-248,-8439,5895
-248,-8439,5639
1544,-7926,5895
-1016,-9463,6919
1288,-6902,6663
-504,-8183,6407
8,-8182,6151
1544,-7414,5895
1800,-7158,6151
264,-7414,6663
-248,-8951,6407
264,-8950,6151
1032,-8182,6151
776,-8182,6151
520,-7926,6151
776,-7926,6407
1032,-7926,6151
1544,-8182,6407
1800,-7414,6407
1032,-6902,5639
520,-7414,5127
776,-7926,5383
520,-8182,5895
520,-8182,5895
-248,-8183,5639
-504,-8439,5895
-248,-8951,5895
520,-8182,5895
-3576,-10231,6919
1288,-5878,6919
1288,-5878,8455
2568,-3574,9479
3080,-758,10247
3336,10,11272
3080,10,12552
2824,10,13576
2568,1290,14600
2568,2826,15112
2824,3082,14344
4104,3850,11272
4616,4874,5896
4616,5130,3080
5128,4618,3336
4360,1546,3336
2824,-1526,2311
1032,-2550,1799
1288,-2294,1799
2568,-2294,1799
3080,-3318,7
2312,-4342,-1017
3079,-4086,-1017
3591,-1782,-249
4871,266,776
520,-1270,2055
2056,-2038,3847
-1272,-5879,5127
-1784,-7671,5639
-1784,-8695,5895
-2040,-11511,6151
-3064,-13815,6151
-2296,-13559,6151
-1016,-12279,5639
-1272,-12279,5639
-2296,-13559,6151
-2552,-13559,6151
-1272,-12535,6151
-1528,-12279,6151
-1784,-12791,5639
-2040,-13047,5127
-3064,-12535,2567
-4344,-9975,-2553
-3577,-6647,-2553
-4089,-7159,-249
-7417,-17143,519
-13304,-29175,519
-16632,30217,-7417
-17401,30217,-15865
-17657,-30967,-18937
-22777,-31735,-18937
-16121,-15607,13063
-14585,-2807,-30201
-6138,20745,13832
7942,-7158,13320
25350,-32758,12553
-25850,-12534,9993
-12794,-6902,9481
-3066,-9718,16137
6,-17653,18953
-250,-18678,19209
6,-26101,26633
-1018,12042,-25335
-8954,-24310,-13048
-19962,8202,-1528
-27130,-22006,10503
32519,17418,22535
27399,-4854,-28666
22023,-17910,-15354
16391,-18934,-7162
14343,-7158,-1018
10759,14090,1543
5128,26378,4871
1032,-32502,7943
1032,-23798,10503
-3832,-23543,12295
-1528,-14839,16391
-3576,-12279,18695
-1016,-10231,18695
-504,-8695,18951
-1784,-8695,19719
-3576,-8695,20743
-3064,-8695,20999
-1528,-7671,21511
-1528,-7159,22023
-3320,-7927,23303
-3320,-8183,24327
-2040,-7927,24839
-2040,-7415,25351
-2296,-7415,26375
-2552,-7415,27399
-2552,-7927,28167
-1528,-7671,29447
-1016,-7671,30983
-2040,-7671,31751
-2040,-7927,32263
-1272,-8183,-32249
-760,-8439,-30201
-760,-9207,-28409
-504,-8951,-27641
-5880,-11767,-26617
-760,-10487,-25081
-760,-10487,-23033
264,-10230,-21753
8,-10486,-20729
8,-10998,-20217
8,-12278,-18937
264,-12534,-17657
8,-12278,-17657
8,-12278,-16889
8,-12534,-15353
264,-12022,-14841
264,-10742,-14073
264,-9462,-13817
-760,-9719,-13049
-1528,-10743,-12793
-2296,-12023,-14073
-3320,-12279,-15097
-3576,-10487,-14585
-3320,-8439,-13817
-2296,-5367,-13561
-2040,-2551,-14329
-2040,9,-14328
-1272,2569,-13304
520,5130,-13304
-4344,3337,-13048
776,5130,-15608
8,5642,-16120
8,5642,-16120
-504,4361,-16888
-1016,1033,-20728
-2552,-2039,-27385
-3064,-3575,-30713
-3064,-3575,-31993
-2040,-3575,32263
-2040,-3575,30727
-2296,-3831,28935
-2040,-3831,27399
-2296,-3575,26119
-1528,-3575,24071
8,-2550,21767
-504,-1271,20231
-760,-759,19207
-1016,-1015,17671
-248,-759,16135
1544,10,14856
1032,522,14344
520,778,13064
-248,9,12296
776,10,11528
-3832,-1527,11527
-248,-1015,10759
-1016,-1783,10503
8,-2294,9991
1032,-2550,9735
1544,-2806,9991
776,-3574,9991
776,-4342,9991
1032,-5110,9991
1032,-5878,9735
776,-6902,9991
520,-7926,10247
264,-8950,10503
8,-9462,10759
8,-10742,11015
-248,-10743,11783
-1016,-12023,11527
-760,-13047,12039
-760,-13815,12551
-760,-14839,13063
-760,-15351,13063
-760,-16375,13319
-1272,-17655,13575
-2296,-17655,13831
-1784,-17399,14087
-5880,-19191,14087
-1272,-18935,14343
-2296,-18935,14343
-2296,-18423,14087
-1528,-18423,13831
-760,-18423,13831
-1528,-18679,13831
-2296,-18679,12807
-2808,-18935,12295
-2040,-18935,12551
-2040,-18679,12551
-2296,-18423,12039
-2552,-18167,11527
-1784,-18167,11271
-1272,-17911,11271
-760,-16375,11015
-1272,-15351,10759
-1272,-15607,10503
-1272,-15607,9991
-1272,-15607,9735
-1272,-14839,9479
-1528,-14839,9223
-1528,-14839,8967
-1784,-14327,8967
-248,-13047,9223
-4856,-14583,9479
-760,-13047,9223
-1528,-13303,8967
-1272,-12791,8455
-760,-12791,8455
264,-12534,8455
8,-12022,8199
-248,-11767,8455
-248,-11255,8711
-248,-11255,8967
-248,-11255,8711
264,-10998,8199
8,-10742,7943
-504,-10999,7687
-504,-11255,8199
-248,-10999,8199
-504,-9975,7943
520,-8950,7943
776,-8950,7943
1288,-9206,8199
1288,-8950,8199
1288,-9206,8199
1032,-8950,8199
520,-9206,7943
264,-9462,8455
-4856,-11511,8199
8,-10230,8199
8,-9462,8199
8,-9206,7943
-504,-9463,7943
-504,-9463,7943
-504,-9975,8199
-248,-10231,8455
-504,-10231,8455
-248,-9719,8455
-248,-9719,8199
8,-9462,8199
264,-9718,8199
264,-9974,8199
-248,-9719,8199
-248,-9719,7943
-760,-9719,7687
-504,-9719,8455
-760,-9975,8455
-760,-9719,8455
-248,-9207,8199
-248,-9207,8199
-248,-9207,8199
-1016,-9463,8455
-1784,-9719,8711
-6392,-11255,8455
-1016,-9719,8455
-1784,-9719,8199
-1784,-9463,8199
-1272,-9463,8199
-504,-9463,7943
-504,-8951,7943
-760,-8951,7943
-2040,-8951,7687
-1784,-9207,7687
-1784,-9463,7943
-760,-9463,8455
-1016,-8951,8455
-1528,-8951,8199
-1784,-9463,8199
-1528,-9463,8455
-2296,-9463,8455
-2040,-9207,8455
-1784,-8951,8199
-760,-9207,8199
-248,-9207,8199
-504,-8951,8967
-504,-8951,8967
-760,-9207,8967
-1016,-9207,8455
-6136,-10487,8455
-1784,-9463,8711
-1784,-9463,8711
-760,-9463,8967
-1272,-9207,8711
-1528,-9207,8711
-2296,-9975,8711
-2296,-10231,8455
-2552,-10487,8711
-1016,-9207,8967
-1272,-9207,8711
-1272,-9207,8711
-1016,-8951,8967
8,-8950,8711
8,-8694,8199
8,-8438,8199
-504,-8183,8455
-760,-8183,8967
-248,-7927,8967
8,-7926,8711
264,-7670,8455
8,-7926,8455
8,-8182,8455
264,-8438,8199
8,-8182,8199
-4856,-8695,8455
-1016,-8695,8711
-1016,-9207,8711
-504,-8951,8711
-760,-8695,8711
-504,-8695,8711
-504,-8695,8711
-248,-8439,8967
-1016,-8183,8967
-760,-8183,8967
-760,-8439,8967
264,-8438,8967
-504,-8439,8967
-1272,-8439,8455
-1272,-8439,8199
-248,-8439,8455
-248,-8183,8455
-504,-8183,8711
-1016,-8183,8455
-760,-8183,8199
-248,-7927,8711
-248,-7927,8711
-504,-8183,8711
-504,-8439,8711
-248,-8183,8711
-4344,-8695,8199
8,-7926,8199
-504,-8183,8199
-248,-8439,8711
264,-8182,8711
264,-7926,8711
264,-7670,8711
8,-7670,8711
-1016,-7927,8711
-1016,-8183,8967
-504,-8439,8967
264,-7670,8711
264,-7670,8455
-504,-7415,8711
-504,-7927,8967
8,-8182,8711
8,-7926,8711
-248,-7927,8711
-760,-7927,8967
-248,-7927,8967
-248,-7927,8967
8,-7670,9223
-248,-7927,8711
-504,-8183,8967
-504,-8183,8967
-4344,-8183,8455
520,-7926,8455
264,-7670,8199
520,-7414,8967
264,-7158,9479
8,-7158,9479
-248,-8439,9223
-504,-8439,9223
-504,-8183,9223
-248,-8183,9479
-760,-7927,9735
-504,-8183,8967
-760,-8439,8455
-504,-8695,8711
-760,-8951,8967
-248,-7927,9479
520,-5878,10247
2312,-3574,11527
2056,-1782,12807
2312,-758,13575
2056,522,15112
2568,1290,16136
2568,1546,17416
2824,3338,18952
2824,4874,18440
-1016,4873,17416
3848,4874,11528
3848,4874,7688
3592,5130,6664
3080,3594,6408
2312,522,5640
1288,-1526,4871
8,-2550,4871
8,-1782,4871
2568,-1270,4359
3336,-1782,3335
3336,-2294,1799
3080,-1782,1799
4104,10,2568
4104,1034,4104
4104,778,4616
1032,-1782,6407
-2296,-6903,7431
-4600,-8695,7687
-4088,-9463,7943
-3576,-11767,7687
-2296,-13303,7687
-2040,-13047,7943
-2296,-11767,8199
-2040,-11255,8199
-4856,-11767,7687
-504,-11511,8199
-1784,-11255,8199
-2040,-11511,8711
-2040,-11511,8455
-2040,-12279,6919
-3064,-10999,263
-4088,-6903,-2297
-3577,-3831,1799
-4600,-8439,3591
-9208,-20983,3591
-13048,-29943,-505
-16377,32521,-8185
-16633,-29943,-14585
-16377,-26359,-20729
-15865,-17399,28167
-15353,-5111,-8953
-9210,11785,21000
774,-23286,9992
18182,20490,10761
-29690,-13302,12809
-15354,-2806,12041
-4858,-3062,13577
-250,-10230,19209
774,-12533,18953
-2042,-12534,18697
6,26635,-28663
-5626,-9206,-17144
-14842,22794,-5880
-22778,-9462,8199
-30969,27146,20743
28679,3338,-32761
24583,-13046,-18426
21255,-16374,-6394
16647,-12278,1798
11272,8458,3079
7944,26378,4359
4616,-32246,9991
2312,-25846,14087
264,-19958,14855
8,-14838,16647
-760,-11767,20487
-1272,-10743,22279
-2552,-9719,21511
-2296,-7671,21511
-1528,-6647,22791
-504,-7159,24071
-1016,-7415,24327
-1272,-6647,24071
-1016,-5879,24327
-4088,-5879,24583
-1272,-6135,27143
-1528,-5879,26887
-1272,-6391,26887
-504,-6647,28423
-504,-6391,30471
264,-6390,30471
8,-6134,30471
8,-6646,32007
-248,-6391,-31993
-504,-6647,-31225
520,-6646,-30969
776,-6902,-29689
1032,-7158,-27641
1032,-7414,-26617
1544,-7414,-26361
1288,-8438,-25337
1544,-9462,-23545
8,-9462,-22521
264,-9462,-21497
776,-10486,-20729
2056,-10742,-18937
1800,-10742,-18169
1032,-10742,-17913
776,-12278,-17401
-2040,-12535,-17401
776,-12534,-15865
776,-12534,-15865
1288,-12790,-15865
1800,-13558,-15609
1800,-13558,-15353
1544,-13558,-15865
776,-13302,-16377
520,-13302,-16633
776,-13302,-16889
1032,-13302,-17145
1032,-12278,-18169
1032,-11254,-19193
776,-11254,-19193
1032,-10998,-19705
1544,-9974,-20985
776,-9462,-21497
1032,-8950,-22009
520,-8950,-22265
1032,-7926,-23289
1032,-6902,-24313
2056,-5622,-25081
2056,-4854,-25593
1288,-4342,-27385
520,-3318,-28665
-2040,-2039,-29945
2056,10,-30456
2568,1290,-32248
2824,2314,31752
2824,3338,30216
3080,4618,29448
3080,5386,27400
2568,5642,24840
2312,6410,24072
1800,6666,23048
1800,7946,21512
2056,8202,20488
2824,8202,18696
2824,8202,17928
1800,8202,17416
2568,8458,16136
2568,7946,15624
2568,7178,15368
1288,6410,14856
1032,5642,13832
2056,4874,14088
3592,4106,14088
2824,3338,14088
2056,3082,13832
1288,1290,13576
-504,1545,12808
1800,-246,14087
1544,-1014,13831
1288,-2806,14087
1544,-4086,15111
776,-4598,15623
520,-4854,15623
264,-6646,15623
-504,-8439,16135
-1272,-9719,16647
-1784,-9975,16647
-1528,-10487,16903
-248,-10743,17159
8,-11510,17415
-504,-11511,17927
-504,-12023,17927
-1272,-13815,17927
-1528,-14327,17927
-1784,-14583,17671
-1528,-14071,17671
-1528,-14583,17415
-1784,-14839,17415
-1528,-15095,17671
-760,-15095,17671
-1016,-15351,17415
-3576,-13815,15623
-1784,-13815,15879
-2040,-13815,15879
-1272,-14071,16135
-1016,-14071,15879
-1528,-14071,15623
-1528,-13559,14599
-1784,-13303,14599
-1272,-12791,14343
-1272,-13303,14343
-1272,-13303,13831
-1272,-12791,13831
-1528,-11767,13063
-1272,-12023,13319
-1272,-11767,13319
-1272,-12023,12807
-1016,-11511,12551
-504,-11255,12295
-504,-10743,12295
-248,-10743,12551
-760,-10999,12295
-1016,-10743,12295
-760,-10743,12551
-504,-10743,12295
-1016,-10999,11783
-2552,-9207,10503
-1272,-10231,11271
-1528,-9975,11271
-1272,-10743,11527
-248,-10487,11783
8,-9974,11527
264,-9206,11527
8,-8950,11527
264,-9462,11527
264,-9718,12295
264,-7926,13319
520,-6134,13831
1544,-4854,14599
1800,-3574,15879
1800,-2038,17159
1544,-502,18183
1544,522,18952
1288,10,20232
1544,1290,21256
2824,3594,20232
3336,3850,17160
4104,4106,12552
4360,3850,9224
4616,4106,8712
3080,2058,8712
1032,2058,6664
1032,-3318,6407
776,-3318,6919
1544,-2038,7175
2824,-2038,6407
2568,-4342,4871
3080,-4342,3335
2312,-1526,3847
2312,10,6152
2312,10,6920
2312,-1782,7687
-248,-5111,9991
-3320,-7415,10759
-4344,-9719,11271
-3832,-12279,11015
-2552,-13559,10503
-1784,-13559,10247
-2296,-13303,10247
-3064,-13047,10247
-2808,-13047,10503
-2808,-14071,10759
-2040,-14071,10759
-2040,-13047,10503
-2296,-12279,10503
-2296,-12279,10759
-2040,-10743,8967
-2552,-10743,4615
-4344,-8183,263
-4088,-5879,2823
-4088,-8951,4359
-8440,-19703,5127
-13304,-30199,3591
-17912,29449,-4345
-17657,31497,-10489
-16889,-28919,-14329
-16633,-22007,-28153
-16377,-11511,3847
-12537,3593,28936
-3578,30217,11528
11782,4618,10761
30470,-23030,12297
-19450,-4342,12297
-7930,-2294,13065
-1530,-9718,20745
262,-17909,22793
774,-20213,24073
1286,31755,-30455
-1274,778,-16375
-10490,30986,-5624
-20730,-1526,5895
-23033,-8950,7943
31751,7178,32263
26119,-11510,-19450
19975,-19190,-8442
15623,-18166,262
12296,-1526,5382
9480,21002,6663
4360,31242,9479
2056,-28662,14087
1288,-21494,17671
776,-14838,19463
-1016,-12023,21767
-1016,-10743,23047
-760,-9463,23559
-504,-6903,24071
-760,-5623,25351
-1016,-6903,26375
-1528,-7671,26375
-2296,-7159,26375
-2040,-6135,27911
-760,-5879,29191
-248,-6135,29703
8,-5622,29959
8,-4854,31239
-1528,-5367,32263
-1272,-4599,31495
-504,-6135,-31737
-504,-5367,-30969
-760,-5623,-28665
-504,-6647,-26873
-504,-7671,-26617
-248,-7415,-26105
-1272,-7671,-24313
-1272,-7927,-22009
-1016,-8695,-21497
-248,-8695,-21241
264,-8438,-19193
1288,-8182,-16377
776,-8950,-15097
520,-9718,-15097
520,-10230,-13561
264,-10486,-12025
-248,-11255,-11001
-760,-11767,-11001
-504,-12535,-11001
-760,-13303,-10233
-504,-13559,-8953
-504,-13559,-9209
-248,-13303,-9209
-248,-13815,-8697
-248,-11767,-9465
-1016,-14071,-8697
-760,-13815,-10233
-1272,-14327,-10233
-1784,-14327,-9209
-2040,-14583,-9209
-1784,-13815,-11001
-1784,-13303,-12281
-1784,-13303,-12281
-2552,-13559,-12281
-2296,-12535,-13561
-2552,-12279,-14585
-2296,-11767,-15097
-2296,-11511,-15865
-2296,-10487,-17913
-2296,-8951,-19449
-2040,-7671,-20985
-2296,-6903,-22521
-2296,-6135,-24825
-1784,-4343,-27129
-1784,-3319,-29177
-1528,-2551,-31225
-1528,-2039,31751
-1784,-1015,29447
-1784,-503,27655
-1272,2057,25352
-1528,777,23816
-1272,1545,21768
-760,1545,21000
-504,2057,19720
-504,1801,18440
8,2314,16904
-760,2057,15880
-504,1033,15368
-248,9,15112
-504,265,14088
-248,265,13832
264,10,13576
8,-1526,13319
264,-1782,13063
520,-1782,13319
1288,-1782,13063
264,-3318,12807
264,-3830,13063
520,-4086,13319
520,-4854,13319
8,-5622,13575
8,-5878,13319
264,-5878,13575
8,-6390,14087
776,-4854,13063
520,-7158,14343
776,-7158,13831
264,-7670,14087
-248,-7927,14599
-248,-8695,14855
520,-8438,14599
8,-8694,14599
-504,-9719,14343
-1528,-10743,14599
-504,-9975,14599
-248,-9463,14599
264,-9718,14343
8,-9462,14343
8,-9718,14087
8,-9718,14599
264,-9206,14087
8,-9206,14343
8,-9206,14343
264,-9206,14599
8,-8950,14343
-248,-8695,13831
-248,-8951,13575
8,-9462,13575
-504,-9719,13063
264,-6902,11527
-248,-7927,12551
8,-7926,12551
8,-8950,13063
-248,-8951,12807
-248,-8951,12551
776,-8182,12551
264,-7670,13063
-248,-8183,13063
-1528,-9207,12807
-760,-8951,12295
-760,-9207,12551
8,-8694,12551
-248,-8183,12551
-248,-7927,12551
-248,-7927,12551
8,-7926,12295
-248,-7671,12039
264,-7414,12295
8,-7414,12807
8,-8182,13063
8,-8438,12551
264,-8182,12039
264,-6902,12039
264,-6646,13575
2312,-3830,13063
1800,-3830,15111
2568,-1270,15367
1800,-246,17159
1800,266,19720
1800,10,20232
2312,1802,19976
1544,3850,21768
2312,4618,22280
2824,4618,19976
4360,5642,13832
4616,5642,9736
4360,5386,9480
2568,3338,9480
2568,522,8200
2568,-758,7175
2824,-758,6919
2056,-1270,7431
2056,-1270,6919
2568,-2294,5383
4104,-2806,3847
4360,-1526,4359
4104,778,5896
3848,1546,7176
3080,266,8200
4360,1290,7688
-2808,-6391,11783
-3832,-7927,11527
-3576,-9975,11527
-3576,-12535,11015
-3320,-13303,11015
-1016,-12023,11271
-1016,-11767,11527
-2296,-12023,11527
-3320,-13303,11271
-1784,-13047,11271
-1784,-12023,11271
-1784,-11767,11527
-2296,-11767,11527
-2040,-11511,11015
-2040,-10999,7175
-2040,-8695,1799
-3064,-5111,2823
-3320,-5111,5383
-6904,-15095,5127
-11000,-26615,5383
-15096,31497,7
-16888,30473,-7417
-17401,-31223,-12537
-16889,-26359,-20729
-14329,-20727,-26361
-13305,-2295,-22265
-5626,19465,15880
6918,-10742,13064
24582,30730,11529
-25082,-8694,9737
-11002,-502,10761
-2810,-4086,17161
-762,-15094,22793
6,-17909,22793
1542,-24053,29193
1030,16139,-22519
-6650,-20726,-9208
-18170,11530,1800
-24313,-19446,13575
-30713,16906,26119
29703,-5366,-24826
22791,-17142,-11514
18183,-18422,-3578
15111,-8438,2822
10760,11786,6151
4616,26378,8967
2312,-30710,12039
2056,-23030,14855
776,-18678,18183
1544,-13814,18439
-2296,-11255,22279
-760,-8951,22535
-760,-7927,23559
-2296,-7671,25607
-2552,-7415,26375
-1272,-6903,25863
-1272,-6903,25607
-2040,-6903,27399
-3064,-6903,28679
-1784,-6391,28935
-760,-6391,28935
-504,-6391,29959
-1784,-6391,32007
-1784,-6391,-32761
-1528,-6391,-32761
-248,-6647,-31737
-1272,-6391,-29433
-1272,-6135,-28665
-1016,-6391,-28665
520,-6646,-26873
520,-7158,-24569
264,-7414,-23545
-760,-7415,-23289
-248,-7927,-21753
4104,-5622,-21497
1800,-8694,-17401
1032,-8438,-17401
264,-8694,-16633
520,-9974,-14073
776,-10742,-13049
1032,-10742,-12793
264,-10742,-13049
264,-11510,-11769
-504,-12791,-10233
264,-12790,-10233
8,-12790,-10489
776,-13046,-10489
8,-14070,-9465
-248,-14071,-9721
-1272,-13815,-10233
-760,-13303,-10489
-504,-13559,-10233
-504,-13559,-10489
-1016,-13815,-11257
-1272,-13559,-12281
-1528,-13559,-12281
-1016,-12791,-12793
-1016,-12535,-13561
-760,-12023,-14841
2056,-8694,-16377
-1272,-10743,-16377
-504,-10743,-17401
-504,-9975,-18937
-1272,-9207,-19961
-1784,-7927,-22265
-1016,-6391,-24057
-504,-5623,-25337
-504,-4599,-27385
-1272,-3319,-29433
-248,-1783,-31993
-504,-1783,31751
8,-502,29447
-248,777,27400
8,1290,25096
8,1290,24328
520,1802,22536
-760,2057,21000
-504,2825,19208
-504,2825,18440
776,2570,17672
776,2570,17160
1032,2570,15368
-248,2057,15112
-248,1545,15112
4616,4362,13320
1288,778,13576
776,522,13320
-504,-503,14087
-504,-1783,14343
8,-2038,13831
776,-2038,13831
520,-2550,13831
520,-4086,13831
-760,-4599,13575
264,-4854,14343
520,-5110,14855
776,-5110,14855
8,-6646,14855
8,-7158,15111
8,-7158,15367
776,-7158,15623
-248,-7927,15367
-504,-8951,15367
-504,-8951,15879
264,-8950,15879
8,-9974,16135
8,-9974,16391
-1272,-10487,16391
-1528,-10487,15879
3848,-7670,14343
520,-10998,15623
8,-10486,15367
-1272,-10743,15623
-1272,-11255,15623
-1016,-11511,15623
-760,-11767,15623
-1784,-11767,15367
-2040,-11767,15111
-2040,-11767,15111
-1016,-11767,15111
-1272,-10999,15111
-760,-9975,14087
-760,-9975,13831
-248,-9975,14087
-248,-10231,14087
264,-9974,13831
-1016,-9975,13831
-504,-9719,13319
-248,-9719,13063
-248,-9463,13063
-760,-9463,12807
8,-8950,12807
-760,-8951,13063
-760,-8951,13063
3592,-5622,11271
-504,-9207,11783
-248,-8439,12039
-248,-8439,12807
-1016,-8695,12807
-760,-8951,12807
-248,-8695,12551
-504,-8183,12295
-248,-8183,12295
-1272,-8695,12295
-504,-8951,13063
-248,-8439,13063
520,-7158,13063
520,-5366,13575
1288,-4342,15111
1288,-3318,16903
2568,-1014,16647
2056,266,17416
2568,1546,19208
1800,1290,21256
2056,1802,22024
3080,4618,22024
4616,5898,19720
4104,5386,16392
3592,4874,12040
7944,7178,8712
3080,3594,8968
3080,1546,8968
1544,-1782,8199
-248,-4343,7431
-248,-3319,7431
2056,-1782,7431
2568,-1782,6919
2056,-4086,5127
2056,-4086,4103
2824,-758,5383
3592,1034,7176
3336,10,8200
264,-3318,8967
-2296,-5623,10247
-4344,-7415,11783
-4600,-10231,12295
-4600,-12791,11783
-3832,-13047,10247
-2808,-12791,10759
-2552,-12279,11271
-2296,-12279,11527
-2296,-12279,11271
-2808,-13047,11271
-2552,-13047,11271
2056,-9206,10503
-2040,-12023,11015
-2040,-11767,10247
-2808,-12279,9223
-4344,-10743,4103
-3832,-6391,1543
-2552,-3831,3847
-4856,-10231,4359
-11768,-24055,5383
-16888,32521,1543
-17144,30985,-7929
-17145,-31735,-13305
-18425,-28151,-18425
-18425,-20215,28423
-15609,-6391,-12281
-9978,11529,20488
262,-24822,11784
16134,17674,10761
-30458,-12790,10761
-16122,-1526,11273
-5370,-2550,15113
-2042,-14582,22281
6,-20213,22281
518,-23541,25097
262,20747,-26359
3590,15371,-21751
-15354,17418,-1016
-22266,-12790,9735
-29177,21770,23815
28167,-3062,-26874
23559,-16630,-14586
20231,-18678,-6650
16391,-14326,1030
9736,3594,6919
4616,22794,8199
3080,-32758,10247
2568,-25590,13575
-248,-20727,17927
-2552,-15607,20743
-2552,-10999,21511
-1272,-9463,22279
-248,-8951,24071
-2296,-7927,25607
-2552,-6135,25863
-2040,-6391,25863
-1784,-6903,26375
-1784,-7159,28167
-2040,-5879,29191
-2296,-5367,28935
-2296,-6391,29191
2824,-4086,29447
-760,-5623,-32761
-760,-5111,32519
-1016,-5623,-32505
-760,-6135,-30201
-504,-6135,-28409
-504,-5879,-28409
-760,-6135,-28153
-760,-6903,-25593
-760,-7159,-23801
520,-6902,-23289
264,-7158,-22777
520,-7158,-20985
520,-8182,-18937
520,-8694,-18169
520,-8950,-17657
1032,-8694,-15865
264,-9974,-13817
520,-10742,-13049
264,-10742,-13305
520,-10998,-11769
776,-12278,-9721
1288,-12790,-9465
8,-13046,-10489
-1016,-13559,-10489
4360,-10998,-10489
8,-14838,-8953
-760,-14583,-9721
-1528,-14583,-9977
-2040,-15095,-9977
-1016,-14839,-10233
-504,-14583,-10233
-1016,-13815,-10745
-2040,-13559,-11001
-2040,-13303,-11769
-1528,-13047,-13049
-1272,-13303,-13049
-1016,-12535,-13817
-1016,-12279,-14841
-1272,-12023,-16121
-1528,-11511,-16377
-1528,-10999,-17145
-2040,-10231,-19449
-1784,-8951,-22009
-2040,-8183,-22777
-2296,-7415,-24313
-2040,-6391,-26617
-1016,-4343,-29433
-1272,-3575,-31225
-1784,-2807,32519
3080,778,30728
-248,521,27656
8,778,25864
-248,9,24328
-1272,265,22536
-1272,1289,19976
-248,2057,18952
8,2058,17928
-1528,1545,16904
-1784,1545,15880
-504,1545,14600
264,1290,14344
520,1034,14344
520,266,13576
-248,-759,13319
-248,-1271,13319
520,-1526,13319
520,-1782,13063
264,-2294,12295
264,-3062,12551
264,-3830,12807
-504,-4343,13063
8,-4598,12807
-248,-5111,12807
8,-5622,13063
4616,-3574,12295
-248,-7415,13319
-248,-7671,13575
-504,-7927,13831
-1528,-9463,14343
-1784,-9719,14087
-1528,-9975,14087
-760,-9975,14087
-1272,-10487,14599
-1784,-10231,14855
-2040,-10999,14599
-2040,-12023,14087
-2040,-12535,14087
-1784,-12279,14599
-1528,-11511,14599
-1272,-10999,14599
-760,-10487,14343
-1528,-10487,13575
-1784,-10999,13319
-1784,-11511,13319
-760,-11511,13063
-760,-11511,13063
-760,-10999,12807
-2040,-10743,12295
-2040,-10999,11527
4360,-8182,11271
-248,-9975,11783
-248,-9719,11783
-1272,-9719,12039
-1272,-9463,12039
-504,-9207,11527
-504,-9463,10759
-504,-9463,11015
-1272,-9463,11015
-1016,-9463,11015
-1272,-9463,10759
-1272,-9719,10247
-1528,-9463,10247
-1016,-9463,10247
-1016,-9719,10247
-1016,-9719,10247
-1016,-9207,10247
-1016,-8951,9991
-248,-8439,9991
-248,-8439,10247
-248,-8439,9991
-760,-8695,10247
-504,-8439,10503
-504,-8183,10759
264,-6134,11527
5896,-3062,11015
1032,-3574,13319
1288,-2550,14087
1544,-1014,15111
1032,10,16904
1544,266,17416
1032,10,18696
1800,2314,19720
2568,4106,19208
3336,4362,15880
3336,4106,10760
3336,3850,7688
3080,5130,7688
2824,3338,7432
2824,266,6664
2056,-1782,5639
1032,-2038,6151
1544,-758,5895
2824,-1014,4615
3080,-2806,2823
3080,-3574,2055
3080,-758,3079
4360,1290,4616
4360,1290,4872
2056,-1270,6663
5896,-758,6663
-3320,-6903,9479
-3320,-8183,9223
-2808,-10743,9223
-3320,-13047,9223
-2296,-13047,8711
-2040,-12023,8711
-1272,-11255,8967
-2296,-12279,9223
-2040,-13047,9223
-2040,-12023,8967
-2040,-11255,8967
-1784,-11255,8967
-1272,-11511,8455
-1784,-11511,7687
-2552,-9719,3079
-3576,-6647,-249
-3833,-5623,2567
-5368,-8439,3079
-10232,-19959,2823
-15096,-28663,-2553
-17913,32265,-14585
-18425,-30967,-20985
-18169,-24823,-24057
-18425,-17911,28935
-13305,-13303,20999
-13049,7177,23048
-3322,-30455,13832
12550,10506,13065
30726,-17910,9481
-17402,-2294,9737
-5626,-2038,12297
518,-13045,18441
774,-23797,19977
1030,-27381,19977
1030,22283,32265
-1786,-9974,-16888
-13306,19210,-5112
-21498,-10742,4871
-28153,26122,18183
30471,1802,32519
24839,-15606,-19194
19719,-20982,-10746
16391,-18166,-3066
12551,-1014,3334
7432,19466,5383
3592,29450,6919
3080,-27894,10247
1800,-19958,14855
-248,-15095,17927
3592,-12278,17927
-760,-9975,19719
264,-7670,20487
-504,-6391,22791
-2552,-6647,23815
-2040,-6903,23047
-1272,-6903,23047
-504,-6135,24839
-1784,-5879,26119
-1528,-5879,26375
-1528,-5879,26375
-1272,-5879,27399
-1272,-5623,29959
-1016,-5623,30471
-1016,-6135,30727
-1016,-6391,31495
-760,-6135,-32249
-760,-5879,-30969
-504,-5879,-30457
-248,-6647,-29433
-248,-6647,-27641
-248,-7415,-25593
520,-7670,-25081
520,-8182,-24057
264,-8182,-22009
4872,-6646,-20985
776,-8950,-19193
1032,-9462,-18169
264,-10486,-16633
-760,-11255,-15097
8,-11254,-14329
264,-11254,-14073
1288,-12022,-13305
-504,-13047,-12025
-504,-13559,-12025
-760,-13815,-12025
-1016,-14327,-12025
-1016,-15095,-11513
-504,-15095,-11513
-248,-14583,-11257
-1272,-14839,-11257
-1528,-15095,-11513
-1528,-14839,-12025
-1528,-14839,-12793
-1272,-15095,-13305
-1272,-14071,-13817
-1528,-13559,-14073
-1016,-13303,-15097
-760,-12791,-15609
-1272,-12535,-16121
2824,-10486,-16377
-2040,-11255,-18681
-1528,-11511,-19449
-1784,-10743,-21241
-2040,-9463,-22777
-2040,-7927,-25337
-1528,-6647,-26873
-504,-5623,-28409
-1272,-4855,-30457
-1528,-3063,32263
-1784,-2039,30471
-248,-1015,28423
-248,-759,26887
-504,777,23816
-248,2057,22536
-504,2057,21000
-248,2057,19720
8,2570,17416
264,3082,16136
264,3338,15624
264,3082,14600
520,2570,13576
520,2314,12552
520,2314,12296
520,2314,12040
6152,3082,11784
1800,266,10504
1800,522,10248
520,-246,10503
8,-1782,11015
776,-2294,11271
1032,-2294,11271
1288,-2550,10503
-248,-3831,10503
520,-4342,11015
264,-4342,11783
264,-4342,11527
264,-5622,11527
520,-6134,11527
264,-6134,12039
-248,-6903,12295
-248,-8183,12295
-248,-8183,12295
-248,-8183,12551
8,-8182,12551
-760,-9207,12551
-1272,-9975,12295
-760,-9719,12295
-760,-9463,12551
-760,-9463,12807
3336,-8950,13063
-1528,-10487,12295
-1016,-10487,12295
-1272,-9975,12551
-1528,-10231,12551
-1272,-10231,11527
-1016,-10487,11271
-248,-10231,11271
-760,-9975,11527
-760,-9975,11783
-1016,-10231,11271
-1016,-9975,10503
-1016,-9719,10503
8,-9206,10759
-504,-9207,10759
-1528,-9463,10759
-1272,-9719,10247
-1272,-9719,9991
-1528,-9207,10247
-1272,-9207,10247
-1528,-9463,10503
-1272,-9207,9991
-248,-9207,9735
264,-8694,9991
8,-8694,9735
3592,-7670,9735
-504,-7927,9479
520,-8438,9223
520,-8182,9223
-248,-8183,9479
8,-7926,9479
8,-7414,9991
776,-5622,10247
1032,-4598,11015
1032,-3318,12551
1800,-1526,13319
2056,-246,14343
1800,522,15624
2568,2058,16904
1800,2314,17928
2312,4362,19464
2568,5898,19464
3080,5898,16136
3848,6154,12552
3848,6154,8712
3592,6154,6920
3592,5642,6408
2056,1802,5896
1544,-1014,5127
264,-1526,5127
3848,-1014,5127
2056,-758,4359
2312,-1526,3847
2056,-2294,1799
2312,-2038,1543
2824,1034,2824
3080,2058,4360
2824,1546,5128
-248,-2295,6919
-2552,-5879,7943
-6136,-6647,7943
-6648,-7671,7687
-4600,-8951,6151
-2040,-8951,5127
-2040,-6647,6151
-2040,-2039,7431
-1272,1289,7688
-504,2825,7176
-248,5641,8200
1032,10250,9480
1032,10762,11272
776,9994,12296
2824,14858,9480
6920,23562,4104
10504,31754,-1784
15367,-31222,-2808
15879,-19190,-1016
15623,-19446,2312
11272,-30198,10760
5640,24586,14600
2824,19722,18184
2568,17674,32008
5896,20234,-29688
6920,24074,17160
8456,-32758,-22008
16391,-1270,-9464
28166,-15350,18953
-23034,31242,9738
-11258,-24054,11018
-7930,-28662,11018
-7162,-27126,14090
-11258,-22262,23562
-17658,-27126,-24566
-24826,13834,-4598
-31994,-25590,16905
24071,-10230,-26104
15111,8458,-8184
5639,-23030,5383
-760,20233,17927
-3576,7945,25351
-760,6665,26631
-4344,11017,24071
-4088,21001,20487
-4344,-31991,15879
-4088,-26103,12295
-4344,-24567,11271
-4600,-24311,11271
-4088,-24567,11527
-4088,-24311,11783
-4344,-23799,11527
-4088,-24055,12039
-3576,-24055,12039
-3832,-24055,12295
-3320,-24055,12551
-4600,-24567,12551
-4344,-25335,13575
-4344,-25847,14087
-4088,-25847,13831
-3832,-26103,14599
-3320,-26103,14599
-3576,-26615,15367
-3320,-27383,15879
-3576,-27383,16391
-3064,-27639,17159
-3064,-27639,18183
520,-27638,19207
-3064,-30455,20231
-3320,-31223,21255
-3320,-31223,22535
-2808,-31479,23559
-2552,-32759,24327
-3064,30985,25863
-2808,30985,26887
-2552,30729,28167
-2552,29449,29191
-2808,27401,30471
-2808,26889,32007
-2808,26633,-32505
-2296,25609,-31737
-2808,23817,-30969
-3064,23305,-29945
-4344,23049,-28921
-3832,22793,-29177
-3064,21769,-28921
-3064,20233,-28409
-4344,20233,-28409
-4088,20233,-28153
-4344,20233,-28153
-3832,20233,-28665
-4088,20233,-29433
-504,20489,-28921
-2808,21257,-29433
-2808,21001,-29177
-3064,22025,-30201
-3064,22537,-30969
-2808,23049,-30969
-2808,23305,-30457
-2808,24585,-30201
-2808,26121,-30969
-2296,27657,-32249
-2040,28681,-32249
-2040,29961,-32505
-2552,31497,32263
-1784,-31991,30727
-1272,-30455,29959
-1272,-29175,28935
-1528,-27639,28167
-1016,-24823,26375
-1272,-23543,25351
-1272,-22519,24071
-1528,-20983,22535
-1272,-19191,21255
-1272,-18167,19719
-504,-17143,18695
-1784,-16631,17671
776,-16374,17927
-1528,-14327,15367
-1016,-14327,14855
-1528,-14071,14087
-1784,-13815,13063
-1784,-13047,12295
-1784,-12791,12039
-1272,-13047,12039
-1528,-13559,11271
-2296,-13559,10759
-2040,-13303,10503
-1528,-13559,10759
-1528,-13303,10503
-760,-13559,9991
-1272,-13815,9991
-1784,-14071,10247
-2040,-15095,9735
-1272,-15351,9479
-1016,-14839,9735
-1272,-14839,9479
-1272,-14839,9479
-1272,-15095,9479
-1272,-15351,9223
-760,-15607,9223
-504,-14839,9223
1800,-14582,9991
-1272,-14839,9479
-760,-15351,9223
-1016,-15351,8967
-760,-14583,8967
-1784,-13559,9223
-2296,-13815,8711
-2040,-13559,8455
-1784,-13303,8455
-1528,-11767,8199
-1784,-12023,8455
-1784,-11767,8455
-1784,-11767,8199
-1528,-10743,8199
-1528,-10231,8199
-1784,-9975,8199
-2040,-10487,8199
-1272,-10487,8199
-1528,-9975,8455
-1016,-8695,8199
-1016,-8695,8199
-760,-8695,7943
-1784,-8951,7943
-1272,-8439,7687
-1528,-8439,7687
1288,-8694,8711
-760,-8439,8199
-760,-8183,7943
-1272,-7927,7431
-248,-7415,7175
-248,-7415,7431
-1016,-7159,7687
-1272,-7159,7943
-1272,-7415,7687
-1528,-7671,6919
-1016,-7671,7175
-1016,-7415,7431
-1016,-7415,7943
-504,-7159,7943
-504,-7159,7687
-504,-7159,7943
-1016,-6391,8967
8,-4086,10247
8,-2550,11015
1288,-1014,11271
1800,266,12040
1800,1546,14600
1544,2058,15880
1800,2570,15880
1800,4106,17160
4104,3850,19464
3336,5898,14856
3592,5898,10248
3336,6154,5896
3592,6666,4360
2568,5130,4360
2312,1546,4104
776,-1014,3591
-248,-1271,3591
264,10,3848
1800,-502,2823
2056,-2038,1543
2056,-2806,775
2056,-1014,519
2312,1802,1544
2568,2058,3080
1544,266,4616
-504,-2039,5383
-3576,-5111,6407
-4856,-7415,7175
-5112,-9719,7431
-4088,-11255,6407
-4088,-11511,6407
-3064,-10999,6151
-2808,-10999,6407
-1784,-11511,8455
-3832,-11767,7687
-3064,-11767,7175
-2808,-11511,6663
-3064,-10743,6919
-3576,-10743,7175
-3320,-10487,6663
-3576,-10231,4103
-4344,-7927,-2297
-4345,-4087,-2809
-4601,-4087,263
-8440,-12791,1287
-13560,-24823,1031
-16120,-32759,-4345
-17657,29961,-10745
-18937,-31991,-14841
-19705,-27895,-21497
-17401,-17911,20743
-14073,-4599,-20729
-8442,16393,15624
2566,-15350,9736
21254,27914,11017
-27642,-7670,13065
-13562,5130,11530
-4858,3850,12298
-1786,266,14602
518,-12277,16393
1542,-16885,23049
6,26891,-29431
-6138,-9206,-17144
-16122,21514,-5624
-23290,-10486,8199
-30969,24330,22023
29191,1546,-31225
24071,-12278,-18170
19463,-16118,-7418
14599,-10230,518
9992,9226,2311
5384,26122,3591
2312,-31734,8711
264,-24310,13063
-1016,-18167,14855
-1016,-12791,16135
-1528,-9719,18695
-1784,-8439,20743
-2296,-7415,20999
-2296,-6135,20743
-3064,-6391,22023
-2808,-6135,23559
-2808,-6135,23815
-1528,-6647,24839
-2296,-4599,25095
-2552,-5623,26375
-2552,-5623,26631
-1784,-5111,26887
-2552,-4855,28167
-2296,-4855,29703
-2296,-4855,30471
-2040,-4855,30727
-2040,-4855,-32761
-1784,-5111,-30969
-1784,-5367,-29945
-2040,-6135,-29433
-1272,-6391,-28409
-1272,-6391,-26361
-1016,-6391,-24825
-1272,-6647,-23801
-1528,-6647,-22777
-1016,-7927,-20729
-504,-8695,-18937
-504,-8951,-18425
-760,-8951,-17657
-1272,-8951,-15609
8,-9206,-14585
-248,-9463,-14585
8,-11254,-13049
-1528,-11511,-13049
-1784,-12023,-11769
-1784,-12023,-11769
-1016,-11767,-12537
-1784,-11767,-12537
-2808,-12023,-12281
-2808,-12023,-12281
-2808,-12023,-12281
-2552,-12023,-12281
-2552,-11767,-13305
-2552,-11511,-13817
-2552,-10999,-13817
-2296,-10487,-14329
-2296,-10487,-15353
-2296,-10743,-16121
-2808,-10743,-16121
-2808,-9207,-17145
-2552,-8439,-18425
-2040,-8439,-20217
-2296,-7159,-20729
-2552,-5879,-22265
-2808,-5367,-24057
-2552,-4599,-26617
-2296,-3319,-28409
-1784,-4599,-27385
-2040,-1015,-31993
-1784,-759,31239
-1784,777,28936
-1784,2825,26120
-2040,2825,24584
-2040,2569,22792
-2040,3081,21256
-1784,4105,18440
-1784,4873,16904
-1272,4617,16392
-1272,4361,15368
-1528,4873,13576
-1272,4873,12808
-1272,4105,12552
-1272,2569,12040
-1784,1033,11016
-1272,1545,10504
-1272,1545,10248
-248,1033,10504
-248,9,10248
-1016,-759,9735
-1016,-1015,9735
-504,-1271,9991
-1016,-2551,9991
-1016,-5623,11783
-1272,-4087,10759
-1528,-4087,10503
-1272,-4855,10759
-1272,-6391,11015
-2040,-7927,11271
-2552,-8951,11271
-3576,-11255,11271
-4088,-14071,9991
-3832,-15863,8967
-3832,-16119,9223
-3832,-16887,8967
-3576,-18935,8711
-3832,-21495,8967
-4600,-22263,9223
-6136,-21239,9991
-5880,-19959,11271
-2296,-18679,11527
-248,-18679,10247
-1272,-19447,9991
-2808,-19959,10247
-2808,-18935,10247
-248,-14327,11271
2568,-9974,11783
8,-9974,11783
-1272,-13047,13319
-2040,-9463,10503
-2040,-9207,10503
-2808,-9207,10247
-2808,-9719,9479
-3320,-9719,9479
-3832,-10743,9479
-4344,-10487,9991
-3320,-9463,9479
-3576,-9463,8455
-3832,-8695,3591
-5112,-6135,-1785
-5113,-3319,-1273
-6137,-5623,1287
-10232,-17911,1543
-15864,-30967,1543
-20472,26889,-4601
-20985,27401,-13305
