-15865,-16634,30471
-15609,-15354,29703
-16121,-13818,29191
-14841,-12794,29191
-15097,-13050,28679
-16121,-12794,27911
-16889,-12282,27655
-15609,-10746,27143
-15865,-11258,27143
-15609,-11258,27143
-15865,-11258,27143
-15609,-11002,27399
-15353,-11258,27143
-15353,-11258,27143
-15353,-11258,27399
-15353,-12026,27655
-14073,-12026,28167
-14073,-12538,28423
-13561,-12538,28679
-13305,-14074,29959
-13305,-15098,30215
-13817,-15354,30983
-12537,-15354,31495
-12537,-16634,-32505
-12281,-17914,-31993
-12537,-17914,-31481
-12537,-18682,-30457
-13305,-19706,-28921
-12025,-20218,-28153
-12025,-20218,-27641
-11769,-20218,-27641
-12537,-20986,-27385
-11769,-20730,-27641
-12281,-21754,-26617
-12025,-21242,-26361
-12025,-21498,-25849
-12025,-22522,-25337
-11513,-22778,-25337
-12025,-23034,-26105
-12025,-22778,-26361
-13049,-23034,-26105
-13305,-22778,-26105
-12281,-22778,-25593
-11257,-22778,-25593
-11769,-23290,-25849
-12537,-23546,-25849
-13305,-23546,-25337
-12281,-23546,-25337
-12281,-23546,-25081
-12281,-23546,-26105
-13561,-23290,-26361
-12281,-23290,-25849
-12281,-24314,-25337
-12025,-24058,-25849
-12025,-24058,-26617
-12025,-23546,-26361
-12537,-23802,-26617
-11257,-22778,-26361
-12281,-24058,-26361
-11001,-23546,-26873
-11001,-23546,-27129
-11769,-23546,-27129
-11769,-23546,-26873
-11769,-23802,-26873
-11513,-24058,-27385
-12281,-24570,-27385
-12537,-24570,-27385
-12281,-24314,-27129
-11513,-24570,-27385
-11769,-24570,-27385
-12025,-24314,-27897
-12537,-24314,-27897
-11769,-24314,-27897
-11513,-25082,-27641
-12025,-25082,-27897
-13049,-25338,-27897
-11769,-24314,-27897
-11513,-24570,-27897
-11001,-24570,-27897
-11513,-24826,-27641
-11513,-24570,-28153
-12281,-24570,-28153
-10489,-23546,-28665
-11257,-24314,-28665
-10745,-24058,-28409
-11257,-23802,-28153
-11001,-24058,-27641
-11257,-24314,-27897
-11001,-24058,-28153
-11001,-23802,-28409
-11769,-23802,-28409
-12025,-24058,-28665
-11513,-24058,-28665
-10233,-23802,-28665
-10745,-23802,-28665
-11257,-23802,-28665
-12025,-24058,-28409
-11001,-23802,-28409
-11001,-24058,-28665
-11001,-23802,-28665
-11001,-24058,-28921
-11001,-23802,-28665
-11513,-24058,-28665
-10745,-23802,-28665
-11001,-24058,-28665
-11001,-24058,-29177
-12025,-24058,-29433
-10233,-23546,-29433
-10745,-24314,-28409
-10489,-23290,-28409
-11513,-23802,-28921
-11769,-24570,-29177
-11769,-24570,-28665
-11257,-24314,-28665
-11257,-24058,-28409
-11769,-24314,-28409
-12025,-24058,-29433
-11769,-24570,-29177
-11769,-24826,-28409
-11513,-24570,-28409
-11513,-24570,-28921
-12537,-24314,-28665
-12025,-24570,-28409
-12025,-24570,-28665
-11513,-24570,-28921
-11769,-24570,-28665
-11769,-24570,-28409
-12537,-24826,-28409
-11769,-24570,-28153
-11769,-24314,-28153
-11769,-24058,-28153
-12025,-24058,-28409
-9977,-23034,-28921
-12281,-24570,-28409
-11769,-24314,-28665
-11769,-24058,-28409
-11513,-24058,-27897
-12281,-24570,-27897
-12281,-24826,-28409
-12537,-24826,-28409
-12537,-24314,-28409
-12537,-24314,-28409
-12537,-24570,-28665
-12281,-24570,-28665
-11513,-24570,-28409
-11513,-24314,-28665
-12793,-24570,-28409
-12793,-23802,-28409
-12281,-23802,-28153
-11001,-23802,-28409
-11001,-23802,-28409
-11001,-23034,-28665
-11769,-22778,-28921
-11257,-23546,-28665
-11513,-25594,-26105
-11513,-28410,-23545
-12537,-29946,-22265
-9209,-29178,-22265
-7929,-26362,-24825
-5113,-17914,32519
-3321,-2810,20487
-1529,11526,9736
-505,18438,4360
-1273,20230,264
-5113,17670,-4856
-9722,8454,-4344
-13050,-1274,2567
-14073,-6138,10503
-14073,-8698,16903
-14329,-12282,20487
-14329,-16378,22535
-13561,-18938,25607
-11257,-19706,28423
-11769,-21754,31239
-12537,-23802,-31737
-12793,-25338,-29945
-11257,-25594,-29945
-11257,-25594,-29689
-11257,-25850,-28921
-12025,-27130,-27897
-11513,-27130,-27897
-12281,-27642,-27897
-9977,-27130,-27897
-12025,-28154,-26873
-11769,-27898,-26873
-12025,-28154,-26617
-12025,-28410,-26873
-12281,-28410,-26873
-12281,-28154,-26617
-12025,-28410,-26361
-11769,-28410,-25593
-12793,-28154,-25593
-12793,-28154,-26105
-12025,-28666,-25849
-11513,-28666,-25593
-11513,-28922,-25081
-12025,-28922,-25081
-12025,-28922,-25337
-12025,-28666,-25081
-12025,-28922,-24825
-12025,-28410,-24825
-11769,-28154,-25337
-11769,-28154,-24825
-11001,-27642,-24569
-11001,-27386,-24057
-11257,-27642,-24313
-12793,-27898,-24057
-9465,-26362,-24057
-10233,-26362,-23289
-9465,-25082,-23289
-10745,-25082,-23289
-10745,-24826,-23033
-10489,-24314,-22777
-9721,-23290,-22265
-9977,-23034,-22265
-10489,-22778,-22009
-10233,-21754,-22265
-9465,-20730,-22265
-9721,-20474,-21497
-9721,-20218,-21241
-9465,-19194,-21241
-9721,-18682,-21497
-9721,-18170,-21497
-9465,-18170,-21241
-9465,-17402,-21497
-9465,-17146,-21241
-9209,-16890,-21497
-9977,-16890,-22521
-9977,-16378,-22777
-10233,-16378,-22521
-9465,-16122,-22777
-10233,-16890,-22777
-7673,-16378,-23033
-11001,-17914,-22777
-10233,-18170,-23545
-11257,-18938,-24313
-11257,-19194,-24057
-12025,-19962,-23801
-11513,-19962,-24569
-11769,-19962,-24569
-11513,-19962,-24825
-12537,-20474,-25593
-12281,-20986,-25849
-12025,-20986,-25337
-11257,-20986,-25337
-11513,-21242,-25337
-12281,-22010,-25337
-12537,-22010,-25849
-12281,-22266,-25593
-12281,-22010,-26105
-12537,-21754,-26105
-12281,-22010,-26105
-12281,-22522,-26361
-12025,-22522,-26617
-12537,-22778,-26873
-12281,-22522,-26873
-13049,-23034,-26105
-9721,-22266,-26361
-12025,-23290,-26105
-11769,-23034,-26873
-12025,-23034,-26873
-11769,-23290,-26361
-12537,-24058,-26361
-12537,-23802,-26617
-12281,-23802,-26617
-12537,-23802,-26361
-13305,-23802,-26361
-12793,-23802,-26361
-12793,-24058,-26873
-12537,-23802,-27385
-12793,-23546,-27641
-13049,-23546,-27129
-13305,-23290,-27129
-13049,-23802,-27385
-12537,-23802,-27385
-12793,-23802,-27641
-12793,-23802,-27897
-12793,-23802,-28153
-12793,-24058,-28409
-12793,-24058,-28153
-12537,-23802,-28153
-12537,-23546,-28153
-8953,-22266,-28153
-12281,-24058,-27385
-11769,-23802,-27897
-12281,-24058,-28153
-11513,-23802,-28153
-12537,-23802,-28153
-12281,-24058,-27897
-12537,-23802,-27641
-12281,-23546,-27641
-13049,-24058,-27897
-12537,-24058,-28153
-12793,-24314,-28153
-12537,-24314,-27897
-12281,-24570,-28153
-12025,-24058,-28153
-12025,-23546,-27897
-12281,-23546,-27897
-12281,-23802,-28153
-12025,-24058,-28665
-11513,-24058,-28665
-12025,-24058,-28409
-11257,-23290,-28665
-11513,-23290,-28921
-11257,-23290,-28665
-12025,-23034,-28409
-8185,-22522,-28921
-11257,-23802,-28409
-10745,-23290,-28921
-11513,-23546,-29177
-11769,-23546,-28665
-12025,-23546,-28409
-11513,-23546,-28409
-11769,-24058,-28409
-11257,-24058,-28665
-12025,-24058,-28665
-12025,-23546,-28921
-12025,-23290,-28409
-11001,-23290,-28409
-10745,-23290,-27897
-11513,-23546,-27897
-11769,-23290,-27385
-11513,-22522,-27385
-11513,-22010,-27385
-11257,-22010,-27385
-11257,-21242,-27385
-9977,-19450,-27129
-8697,-18170,-27897
-8697,-18426,-29689
-8953,-18426,-30713
-10489,-18170,-30457
-6905,-17146,-31225
-8953,-18938,-31225
-7929,-18938,-31225
-9465,-18938,-30713
-9977,-19194,-29945
-10745,-20730,-29689
-11001,-22778,-29177
-12281,-23290,-28409
-12281,-23546,-28153
-12281,-23546,-28665
-10745,-23546,-28665
-11513,-25338,-27129
-11769,-27898,-23289
-12793,-31482,-19449
-11769,-32250,-19193
-10233,-30970,-20985
-7417,-24570,-24569
-5113,-11258,30471
-2809,5638,16392
-1273,15622,6152
-2041,16390,3336
-5369,14598,776
-9977,8454,-2552
-13306,6,-2296
-14842,-6394,2823
-11513,-5882,4359
-16121,-13562,17415
-15865,-17146,20999
-15353,-20730,23559
-12793,-20986,26887
-12793,-20986,30471
-12537,-22522,32263
-13049,-25338,-31225
-12281,-25850,-29945
-13305,-26106,-28921
-12793,-26618,-28153
-13049,-27898,-27897
-13305,-28922,-27385
-13817,-28666,-26873
-13561,-28666,-26873
-13561,-29178,-26873
-12537,-29434,-27129
-12793,-29434,-27129
-12793,-29434,-26361
-13305,-29178,-25849
-13305,-30202,-25849
-13049,-30458,-26361
-13305,-30202,-26105
-13305,-29946,-25593
-14841,-30458,-25593
-11001,-29946,-25337
-13049,-30714,-25337
-12537,-29946,-25593
-14329,-30458,-25337
-14329,-30714,-25081
-13817,-30970,-25081
-13305,-31226,-25593
-13817,-31226,-25337
-13817,-31226,-25593
-14841,-31738,-25337
-14073,-32250,-25337
-14073,-32250,-25593
-14073,-32250,-25337
-14841,-32506,-24825
-14329,-32506,-25081
-14329,32006,-24825
-14073,32006,-25337
-14329,32006,-25081
-13817,32006,-24825
-13049,32006,-25593
-13305,32006,-25593
-13817,32006,-25849
-13817,32262,-25849
-13817,32518,-25849
-14073,-32762,-25849
-9977,-31738,-26361
-13049,-31994,-26361
-12793,-31994,-26617
-13561,-31738,-26617
-13561,-30714,-27385
-13817,-30202,-27385
-13049,-29434,-27129
-13049,-29434,-27385
-12793,-28154,-27897
-12793,-26618,-27897
-12025,-25594,-28409
-12793,-25338,-28409
-12025,-25082,-28409
-12281,-25082,-28153
-12537,-24314,-28409
-13305,-24058,-28409
-12281,-23546,-28409
-12025,-23546,-28665
-11513,-23290,-29433
-11513,-23034,-29433
-13305,-23034,-28665
-13817,-23034,-28665
-13049,-23546,-28409
-12793,-23546,-28665
-12793,-23546,-28921
-8441,-23034,-29433
-12281,-23802,-28665
-12025,-24058,-28921
-12537,-23802,-28665
-13049,-23802,-28921
-13305,-24058,-29177
-13049,-23546,-29177
-13561,-23290,-28409
-12281,-23546,-28409
-12793,-23290,-28665
-12025,-23546,-29177
-12537,-23546,-29177
-12537,-23290,-29177
-13305,-23290,-27897
-13049,-23290,-28153
-13049,-23802,-28921
-12793,-24058,-28921
-12793,-23802,-28665
-12537,-23802,-28665
-12537,-24058,-28921
-12537,-23546,-28921
-13561,-23802,-28153
-13305,-23802,-28153
-12537,-23802,-28665
-12537,-23802,-29177
-8953,-23034,-29945
-12537,-23802,-28665
-11769,-23802,-28409
-12793,-23802,-28409
-14073,-24058,-28153
-14329,-23802,-28153
-13049,-24058,-28409
-13305,-24058,-28921
-13049,-24314,-29433
-14073,-24826,-29433
-12793,-24826,-29177
-12537,-24826,-29177
-12025,-24826,-29433
-12537,-24826,-29433
-12281,-24570,-29433
-14073,-24826,-29433
-13561,-25082,-29689
-13305,-25338,-29177
-12025,-25338,-29177
-12025,-25594,-29433
-12025,-25338,-29433
-12537,-25082,-29177
-12793,-25082,-29433
-12793,-25338,-29433
-12793,-25338,-29689
-8697,-24058,-29689
-12025,-24826,-28665
-11257,-24826,-29177
-12025,-24826,-28665
-12025,-23034,-28665
-11257,-21754,-28921
-11257,-21242,-29177
-11257,-20474,-30457
-10489,-19194,-31737
-10745,-19450,-31481
-9721,-20474,-31737
-9977,-21242,-32505
-9977,-21498,32007
-11001,-21754,32263
-11257,-21498,32519
-12025,-22266,-32505
-11769,-24314,-31737
-12793,-25082,-30969
-12793,-25594,-31225
-13049,-26106,-31225
-12025,-26362,-31481
-12281,-26618,-31481
-12793,-26618,-30713
-13305,-26874,-30713
-13305,-26874,-29945
-9209,-26362,-30457
-13305,-27642,-30457
-12793,-29434,-27897
-13561,32518,-23289
-13305,28678,-20473
-13049,28422,-22009
-11769,-32506,-25337
-8953,-23546,-31225
-4857,-7162,23559
-3577,7942,12808
-3065,15110,4616
-5881,13830,4104
-9721,8198,5384
-14073,262,5384
-15865,-5626,5639
-17401,-10746,9479
-16889,-15866,13831
-17657,-19962,19975
-17145,-22778,23303
-16377,-23802,24327
-13817,-23802,27143
-14073,-25082,29703
-13817,-26362,30727
-13817,-27386,32263
-13817,-27898,-31993
-9721,-27642,-31737
-13305,-29690,-29945
-13305,-29434,-29689
-13305,-29690,-29689
-13049,-30202,-28921
-13817,-30714,-28409
-14073,-30714,-28409
-14073,-30458,-28665
-14073,-30202,-28665
-14585,-30714,-28921
-13561,-30970,-28921
-14585,-30970,-28409
-14585,-30714,-28409
-13305,-30970,-28665
-13049,-30970,-29177
-14073,-31482,-28921
-13817,-31482,-28665
-14585,-31482,-28153
-13561,-31482,-28153
-14585,-31738,-28153
-14841,-31738,-28665
-14585,-31738,-28409
-13049,-31738,-28409
-13305,-32506,-28153
-14329,-32762,-27897
-11257,-32762,-28921
-13561,32518,-28921
-13305,32518,-28665
-13817,32006,-28665
-14841,30982,-28921
-14585,31238,-28665
-14329,31238,-28409
-14329,30982,-28665
-14073,30726,-28921
-14585,29958,-28665
-14585,30214,-28409
-14841,29958,-28409
-13561,30470,-28409
-13305,30470,-28153
-13561,31494,-28409
-14585,31494,-28409
-13817,31750,-28153
-14329,31750,-28153
-13561,31750,-28665
-14073,-32506,-29177
-14073,-31482,-29433
-13817,-31482,-29433
-12793,-30458,-29689
-13049,-29690,-29689
-13049,-28154,-30457
-9465,-26874,-30713
-12793,-26874,-30457
-12281,-26618,-30201
-13049,-25850,-29945
-14073,-25850,-29945
-14329,-25850,-29945
-13305,-25850,-30201
-13049,-25850,-29945
-12793,-26106,-29689
-12793,-25338,-29689
-12793,-25082,-29689
-13049,-25082,-29945
-12793,-24826,-29689
-13305,-25338,-29433
-13049,-25082,-29177
-14073,-25082,-29433
-13305,-25082,-29433
-13561,-25338,-29689
-12281,-25338,-29689
-12025,-25338,-29177
-12793,-24570,-28921
-13817,-24570,-29177
-13817,-24826,-29177
-13817,-25082,-28665
-13561,-24826,-28665
-9977,-23546,-29433
-12537,-23802,-29433
-12537,-24826,-28921
-13305,-26362,-26873
-13561,-26618,-25849
-13305,-25082,-26105
-12537,-25082,-26105
-10745,-25594,-25337
-9465,-25594,-24825
-8953,-23802,-25849
-5881,-22778,-27641
-3577,-23034,-30457
519,-23289,29703
3335,-27641,23815
5639,-31225,17671
5639,-32761,11527
4871,29959,10759
775,26375,18951
-1017,26118,26119
-2553,25350,32519
-5113,23814,-25081
-9721,22022,-16633
-12281,22022,-10233
-15353,22022,-7417
-16121,23558,-8441
-13817,24582,-9977
-16633,28166,-14841
-15097,30982,-18937
-14585,-31994,-21753
-14841,-29690,-25849
-14329,-28410,-29945
-14073,-27898,-31737
-13817,-26362,-30969
-13817,-25082,-29177
-14585,-24314,-28409
-14841,-24058,-28153
-15097,-24570,-28409
-14329,-24826,-28409
-14073,-24826,-28153
-14329,-24058,-28921
-15865,-23546,-28921
-15353,-23546,-29433
-15353,-23290,-29689
-14585,-23290,-29945
-15097,-22778,-30201
-15097,-21754,-30457
-15865,-21754,-30713
-15609,-21498,-31481
-15609,-21242,-31481
-15353,-20218,-31993
-12537,-19450,-32505
-15097,-18426,-32761
-15097,-18426,-32505
-16121,-17402,32519
-16633,-16634,32007
-16633,-15610,31751
-16633,-15354,31239
-15865,-14586,30727
-16377,-14074,30471
-17401,-13306,30215
-17401,-11770,30215
-17145,-11258,29703
-17145,-11002,28935
-16889,-10234,29191
-17145,-9210,28423
-17145,-8954,28679
-16121,-9210,28679
-16121,-9210,28935
-15609,-8954,29191
-15865,-8954,29447
-14841,-9210,29447
-15097,-9210,29703
-14329,-9466,30983
-14329,-10746,30983
-13561,-11770,31239
-10233,-11514,30983
-11769,-12794,32263
-12537,-14074,-31737
-12281,-14586,-31737
-12281,-15098,-31481
-11769,-15610,-30457
-12537,-17402,-29433
-12025,-18170,-28921
-12025,-18170,-28409
-11513,-18426,-27897
-11001,-19450,-27385
-11257,-20218,-26617
-11257,-19962,-26873
-11513,-19962,-26361
-11513,-19706,-26617
-12025,-20986,-25337
-11769,-21498,-25593
-11769,-21498,-25593
-11513,-21242,-25337
-12025,-21242,-25593
-11769,-20986,-25593
-12537,-21498,-25081
-12025,-21242,-25081
-12025,-20986,-25081
-12025,-21754,-25593
-9721,-22266,-25849
-11001,-21498,-25081
-11001,-21498,-24825
-11001,-21242,-25081
-12793,-21498,-25337
-12537,-22266,-25337
-11769,-22266,-25593
-10745,-22522,-25593
-12281,-22266,-25337
-12537,-22266,-25593
-11769,-22778,-26105
-12025,-22522,-26361
-11513,-22266,-26361
-11513,-22266,-26361
-12025,-22266,-26361
-13049,-22778,-26105
-12793,-23034,-26105
-12793,-23290,-26105
-11001,-23290,-26105
-11001,-23290,-26361
-11769,-23290,-26617
-13049,-23290,-26617
-12025,-23290,-26617
-12025,-23546,-26617
-11769,-23802,-27129
-9721,-23546,-27385
-11769,-23546,-27129
-11513,-23546,-26873
-11513,-23546,-27129
-12281,-23546,-26873
-11513,-23802,-27641
-11513,-24058,-27385
-11513,-24058,-27129
-12537,-23802,-27129
-12281,-23546,-27385
-12281,-24314,-27641
-12025,-24314,-27897
-12025,-23802,-27385
-12025,-23546,-27385
-11769,-23546,-27385
-11769,-24058,-27641
-11769,-24058,-27641
-12537,-24058,-27641
-11769,-24314,-27641
-11769,-24570,-27641
-11001,-23802,-28153
-12537,-23546,-27641
-12537,-23802,-27897
-12281,-24570,-27897
-11257,-24314,-27641
-9209,-24058,-28153
-11257,-23546,-28409
-11513,-24058,-28409
-11513,-23802,-27897
-12025,-23802,-27385
-11769,-23802,-27129
-12025,-23802,-27129
-11513,-24058,-27897
-12025,-24058,-28153
-11769,-24058,-28153
-11769,-24314,-27897
-11257,-24058,-27641
-11769,-23802,-27897
-11769,-23802,-28409
-11769,-24058,-28665
-11513,-24314,-28665
-11257,-23802,-28665
-11513,-23546,-28409
-11769,-23802,-28409
-11769,-23546,-28409
-11769,-23546,-28409
-12537,-23546,-28153
-11513,-23802,-28153
-12025,-24058,-28153
-12025,-24058,-28409
-10233,-23802,-28409
-11513,-24314,-28409
-11257,-24570,-28153
-11001,-24570,-28153
-11769,-24570,-28153
-11769,-24058,-28153
-12281,-24314,-27897
-12025,-24058,-28153
-12537,-24058,-27897
-11769,-24058,-28153
-11513,-23802,-28153
-11001,-23802,-27897
-11001,-23802,-27385
-10745,-24314,-27641
-11513,-24314,-27897
-11769,-24058,-28409
-11769,-24058,-28153
-11001,-23802,-28153
-11257,-23802,-28153
-11257,-23546,-27897
-11257,-23802,-28153
-11257,-23802,-28409
-11513,-23546,-28409
-11513,-23546,-27897
-11001,-23290,-27641
-9209,-24058,-28153
-10233,-24058,-28409
-10489,-23290,-28409
-11001,-22778,-28409
-12281,-23034,-28409
-11257,-24058,-28153
-12025,-25850,-25081
-12025,-28410,-21753
-11769,-29946,-20217
-9977,-29178,-20473
-8185,-25850,-23801
-4345,-16122,-31993
-1529,518,22024
1287,16135,9736
1543,23559,3336
519,23559,-248
-4346,19718,-5368
-8954,9990,-5624
-11770,518,264
-13817,-5114,8967
-15609,-8442,17415
-15609,-12538,20999
-14841,-17658,22791
-13561,-20218,25351
-12025,-20218,28167
-11001,-20986,28679
-12025,-24826,-32505
-12025,-26874,-30713
-12281,-27130,-29689
-12025,-26362,-29177
-12025,-26362,-29177
-13561,-28410,-28665
-11769,-28410,-28153
-12025,-28410,-27897
-12281,-28410,-27385
-13305,-28666,-26873
-12281,-28666,-27129
-12025,-28922,-26873
-12281,-28922,-26873
-13049,-29178,-26617
-13305,-28922,-26361
-13561,-29178,-26105
-12793,-29434,-26105
-12793,-29690,-26361
-12281,-28922,-26105
-12281,-28922,-25849
-12537,-28922,-25849
-12537,-28666,-26105
-12793,-28666,-25849
-11257,-28922,-25593
-9209,-29434,-25849
-11513,-28666,-25593
-12025,-28666,-25081
-11257,-28922,-24569
-11769,-28666,-24825
-11257,-27642,-24825
-12025,-27386,-24313
-11001,-27898,-24057
-10745,-27898,-23801
-10489,-27130,-24057
-11769,-26106,-23545
-11001,-25338,-23033
-11257,-25850,-22777
-9721,-25850,-23033
-9721,-25082,-22265
-10233,-24058,-22265
-11257,-23802,-22009
-9977,-23802,-22009
-8953,-22522,-22265
-8953,-21242,-22009
-9721,-20986,-21753
-10489,-21242,-21241
-9977,-20474,-21497
-9465,-19450,-21497
-9209,-18426,-21497
-8185,-18426,-21241
-8953,-17914,-21753
-9209,-17146,-22009
-9209,-16378,-21753
-9721,-16122,-22009
-9209,-16378,-22777
-10489,-16378,-23033
-9721,-16378,-22777
-9721,-16634,-22777
-9721,-16378,-23545
-10745,-16634,-23545
-10489,-17402,-23545
-10745,-17914,-23801
-9721,-17658,-23801
-9977,-17914,-24313
-11001,-17914,-24569
-12281,-18682,-24825
-11001,-19450,-25081
-10233,-19194,-25081
-10233,-19194,-25081
-11513,-19450,-24825
-11769,-19450,-24825
-11513,-19706,-25081
-11257,-19962,-25593
-11257,-20218,-26105
-10745,-20218,-26105
-10489,-19706,-26361
-10489,-19450,-26105
-10745,-19450,-26105
-11513,-19706,-26105
-11513,-19706,-26361
-12025,-20730,-25593
-11001,-20986,-25337
-11257,-21242,-25337
-11257,-20986,-25849
-12281,-20986,-26105
-11513,-20986,-26361
-11513,-20986,-25593
-11769,-20474,-25593
-12025,-20474,-25593
-11769,-20986,-26105
-12281,-22010,-26105
-11257,-22010,-25849
-11257,-21754,-25337
-11257,-21242,-25337
-11513,-21242,-26105
-11513,-21498,-26617
-11513,-22010,-26617
-10745,-22010,-26617
-11001,-21498,-26617
-11001,-22010,-26873
-11257,-21754,-27129
-11257,-22010,-27385
-11513,-21754,-27641
-11513,-22010,-27385
-11001,-22010,-27385
-11513,-22266,-27385
-11257,-22010,-27641
-11001,-21754,-27641
-10233,-21498,-27641
-11769,-21498,-27385
-11769,-21498,-27385
-11769,-22266,-27385
-10745,-22010,-27897
-11257,-22266,-28153
-11257,-22266,-27897
-12537,-22266,-27129
-11257,-21498,-27385
-11001,-21242,-27385
-11001,-21498,-27641
-12537,-22010,-27641
-12281,-22010,-27385
-12281,-21754,-27641
-12025,-21754,-27897
-11513,-21754,-27641
-10489,-22778,-26873
-11001,-22010,-27129
-11769,-22266,-27385
-11769,-22010,-28153
-11513,-22010,-28153
-11001,-21754,-28153
-11769,-22266,-27385
-11257,-22266,-27641
-12025,-22010,-27897
-11257,-21754,-28409
-11769,-22010,-28153
-11769,-22266,-28153
-12537,-22266,-27641
-11513,-22266,-27385
-11769,-22522,-27385
-11001,-21498,-28153
-12025,-21498,-27641
-10745,-21242,-27641
-10745,-21498,-27129
-9977,-20218,-27385
-11001,-19706,-27129
-11001,-18938,-27385
-10233,-17146,-27385
-9465,-16378,-28409
-9721,-15866,-29177
-9465,-16378,-29177
-8953,-16890,-30201
-8441,-18170,-30201
-8185,-17914,-30457
-8697,-17658,-30713
-8953,-17146,-30713
-9721,-17402,-29689
-9721,-19450,-28921
-11257,-21242,-28665
-11001,-21242,-28153
-11257,-22522,-27641
-11001,-22266,-28153
-11001,-22010,-27897
-10745,-22522,-28665
-12025,-23034,-28665
-11513,-23290,-27385
-12025,-25594,-23545
-11001,-28922,-20217
-11513,-32250,-18681
-9977,-32250,-19449
-8441,-27898,-22521
-5113,-16122,-32249
-2553,6,20488
-505,14342,8712
-761,20230,3848
-761,20742,3080
-6649,15622,-2552
-9978,7174,-3320
-12282,262,776
-13817,-4602,6919
-14073,-9210,14087
-15353,-14330,19719
-14841,-18170,22535
-12537,-18170,25351
-10745,-18426,28167
-11769,-19962,31239
-11769,-22010,-31737
-12537,-24570,-29945
-11513,-24314,-28921
-11769,-24058,-27897
-11769,-24570,-27385
-12537,-25594,-26873
-10489,-25594,-26617
-10489,-25338,-26617
-10745,-25338,-26873
-12025,-25594,-25849
-11513,-25850,-25849
-11513,-25594,-25593
-11257,-26106,-25849
-12793,-26618,-25593
-13305,-27642,-24825
-12537,-27130,-24825
-12537,-27386,-25081
-12281,-27386,-25337
-12537,-27642,-25337
-12281,-27642,-24825
-12793,-27898,-24313
-12793,-28666,-24569
-13305,-28922,-24825
-12025,-28922,-24825
-12281,-29178,-24569
-12537,-28922,-24569
-13561,-28666,-24313
-12537,-29178,-24057
-13049,-30202,-24313
-13049,-30458,-24569
-14329,-30458,-24569
-13049,-30202,-24313
-13305,-30714,-24313
-13305,-31482,-24825
-13817,-31738,-24825
-13561,-31994,-24313
-14073,-31994,-24057
-13049,-32250,-24057
-12793,-31738,-24313
-13817,-32250,-23801
-13561,-31738,-24057
-13305,-31738,-24313
-13049,-31738,-24057
-13305,-30714,-24057
-13305,-30714,-24057
-13561,-30970,-24057
-12281,-29946,-24569
-12281,-29434,-24569
-12025,-28410,-24569
-12793,-27642,-24825
-12537,-26874,-25849
-12793,-26362,-25593
-11257,-24826,-25849
-12025,-24570,-26361
-12281,-23290,-26617
-12281,-23034,-26873
-11513,-22522,-26617
-11513,-22010,-26361
-11257,-21498,-26617
-11513,-21242,-27129
-11257,-20730,-27129
-11769,-20730,-26873
-11257,-20474,-27385
-11513,-20474,-27129
-11769,-21242,-27129
-10745,-20218,-27385
-10745,-19962,-27129
-10745,-20218,-27129
-10745,-20218,-27129
-11001,-20218,-27641
-11513,-20218,-27385
-11769,-19962,-27385
-11769,-20474,-27129
-10233,-20474,-26873
-10745,-20218,-27129
-11001,-18938,-27641
-11513,-18938,-27129
-11513,-19706,-27129
-11513,-20218,-26617
-11001,-19962,-26873
-12025,-19962,-26617
-10745,-19194,-26873
-11001,-19194,-26873
-11001,-19194,-26873
-11513,-19450,-26873
-11001,-19706,-27129
-11257,-19706,-27129
-10745,-19194,-27129
-11513,-19450,-27129
-12537,-19962,-26617
-11769,-19194,-26617
-11513,-20474,-26617
-11001,-20474,-27129
-11257,-19706,-27385
-11513,-19706,-26873
-11769,-19962,-26361
-11257,-20218,-26873
-11001,-20218,-27385
-10745,-20474,-27385
-11513,-20474,-27385
-11257,-20218,-26361
-11769,-20986,-26617
-11513,-21242,-27641
-11257,-21242,-27385
-11513,-21242,-27129
-12025,-20986,-27129
-11001,-21242,-27641
-11257,-20986,-27641
-10745,-20986,-27641
-11769,-20986,-27897
-10489,-21242,-28153
-11001,-21242,-28409
-11001,-21242,-28153
-11769,-21242,-27897
-12281,-22266,-27385
-11513,-21242,-27641
-11257,-21242,-27897
-10233,-19962,-27385
-9721,-19450,-27129
-9977,-19450,-27129
-10745,-19706,-27385
-11001,-17914,-28409
-9721,-16122,-28153
-7673,-15866,-28665
-7929,-16122,-29945
-9209,-16378,-30969
-9209,-16634,-31225
-8441,-17658,-31225
-8697,-17402,-31481
-8441,-17658,-31225
-11001,-17402,-30713
-10745,-17914,-30713
-10489,-20986,-29689
-10489,-22522,-28665
-12025,-22266,-28921
-11513,-22266,-29689
-11769,-22266,-29689
-10489,-22266,-29689
-10489,-22778,-29689
-12281,-24314,-29433
-11513,-23034,-29945
-10745,-22778,-28153
-11001,-24826,-25337
-11001,-29178,-22009
-12281,-32762,-19193
-12025,-32762,-19193
-9465,-30202,-22009
-5369,-21498,-29433
-3065,-6650,24839
-2041,9478,13064
-761,19718,4360
-2041,20230,1544
-4345,16134,264
-10233,8198,-760
-12794,1542,-248
-13306,-4090,3591
-13817,-8954,10503
-16377,-13562,17671
-16633,-17146,20999
-14073,-18938,23047
-10489,-19194,25607
-11769,-20474,29191
-12025,-21498,31751
-11769,-23290,-32505
-12025,-24826,-31737
-12025,-24826,-29689
-12537,-25338,-28921
-13049,-26106,-28665
-11257,-26106,-28665
-11001,-26106,-28153
-12537,-26362,-28153
-13049,-26618,-27385
-11001,-26618,-27385
-10745,-26618,-27385
-12537,-26618,-27641
-12793,-26874,-27129
-12793,-27386,-27129
-11769,-27386,-26873
-12025,-27130,-26873
-12537,-27130,-27129
-13305,-27898,-27129
-12281,-28410,-26617
-12025,-28154,-26361
-12025,-27642,-26617
-12793,-27642,-27129
-12793,-27642,-27385
-12793,-27898,-26873
-11769,-27898,-26873
-11769,-28154,-26873
-14329,-29690,-27129
-13817,-29946,-26873
-12793,-29690,-26617
-11769,-29178,-26873
-11769,-29434,-27641
-13817,-29946,-27641
-13561,-30458,-27129
-13305,-30202,-27129
-12025,-29690,-27385
-13049,-30970,-27385
-13049,-31226,-27641
-13049,-31226,-26873
-13049,-31226,-26617
-12793,-30714,-26873
-13049,-30714,-27641
-13049,-30714,-27641
-13561,-31226,-27129
-13049,-30970,-27385
-12537,-30714,-27385
-12025,-30202,-27385
-12793,-29690,-27129
-12537,-28666,-28153
-13049,-28154,-28409
-11769,-27130,-28665
-11769,-26362,-28665
-14329,-26618,-28409
-12793,-25594,-28921
-12281,-24826,-29177
-11769,-24058,-28665
-11257,-22522,-28921
-12281,-22522,-29433
-12537,-23290,-29433
-12537,-22778,-29433
-10745,-21754,-29433
-11257,-21498,-29177
-11769,-22010,-29433
-12025,-22266,-29433
-11513,-22010,-29433
-11513,-21754,-28921
-11513,-21498,-28921
-11513,-21242,-29433
-12281,-21754,-29945
-11513,-22010,-29945
-11513,-21754,-29689
-11513,-21754,-29945
-11513,-21754,-29433
-11513,-21754,-29433
-12537,-21754,-29177
-11001,-21754,-29177
-11257,-21498,-29433
-13305,-21498,-28665
-11001,-20218,-28665
-10233,-20474,-28665
-11257,-20986,-28409
-10489,-20986,-28921
-11513,-20730,-29177
-11513,-20986,-28921
-11769,-20986,-28409
-11001,-20986,-28665
-11257,-20730,-28665
-11001,-20986,-28921
-11769,-21242,-28921
-11769,-21498,-28665
-11769,-21498,-28665
-10745,-20986,-29177
-11257,-21242,-28921
-12025,-21498,-29177
-11769,-21754,-29177
-11513,-21498,-28921
-10745,-21754,-28409
-11001,-21498,-28665
-11257,-21754,-29177
-12025,-22010,-29177
-11513,-21754,-29433
-11257,-22010,-28921
-12793,-22266,-28409
-11513,-22010,-29177
-11513,-22010,-29433
-11513,-22010,-29689
-10489,-22010,-29945
-11769,-22266,-29945
-11513,-22522,-29689
-12281,-22266,-29433
-11001,-22010,-29945
-11257,-22522,-29945
-11257,-22522,-30201
-12025,-22522,-30201
-11513,-21754,-30201
-11513,-22010,-30201
-10745,-21754,-29945
-11257,-21754,-29177
-11513,-22010,-28921
-11257,-21498,-29177
-11257,-20474,-28921
-9465,-19450,-28665
-9721,-18938,-28665
-9977,-17914,-30201
-9977,-16634,-30713
-8697,-16378,-30969
-8697,-16634,-31225
-11257,-17402,-31481
-9465,-18170,-32761
-8953,-18170,-32505
-8953,-18426,-31993
-8697,-17658,-31993
-11257,-18682,-31737
-11769,-21754,-31225
-12281,-23290,-29945
-10745,-23290,-30201
-11513,-23290,-29945
-11513,-23034,-30457
-11257,-23034,-30201
-10489,-23034,-30201
-11001,-23034,-30201
-10745,-22522,-29689
-11769,-23034,-28409
-12025,-25338,-26361
-12025,-29434,-22777
-12025,-32506,-20217
-10489,-32250,-19961
-9465,-30714,-21753
-6905,-22778,-28153
-4601,-8954,25863
-1273,7174,12296
-505,17158,3080
-3065,17926,1544
-5113,15622,-1528
-8186,8454,-3576
-11002,518,-2808
-12282,-4602,1031
-14585,-9722,8711
-14841,-13562,15623
-14841,-17658,19975
-12025,-19194,22535
-12025,-18938,25863
-11769,-19450,29191
-12025,-21754,32007
-11001,-23546,-32249
-11001,-23802,-30969
-11257,-23546,-29433
-11513,-24570,-28921
-11001,-25850,-28665
-10489,-26106,-28409
-10745,-25338,-27897
-11001,-25594,-27129
-10745,-26106,-27129
-11513,-26618,-26873
-11513,-26618,-26617
-11001,-26106,-26361
-11257,-25850,-26617
-13305,-27130,-26873
-11769,-26874,-26361
-12025,-26874,-25849
-11513,-26618,-25593
-10745,-27130,-26361
-11513,-27642,-26617
-11769,-27642,-26105
-12537,-27386,-26361
-10489,-27386,-26617
-10489,-27898,-26617
-11769,-27642,-26873
-12281,-27898,-26617
-11001,-27642,-26617
-11257,-27386,-26617
-11513,-27898,-26873
-12281,-28666,-26617
-11769,-28666,-26873
-11001,-28666,-26873
-11001,-28922,-26617
-11513,-29946,-26873
-12281,-30202,-26617
-12025,-30202,-26361
-11769,-29946,-26361
-11257,-30202,-26361
-11769,-30458,-26361
-14329,-30458,-26105
-12025,-29946,-25849
-11769,-29946,-25849
-11769,-29946,-26105
-11001,-29178,-27129
-12537,-29434,-26873
-12281,-29434,-26361
-12025,-29946,-26361
-9721,-29434,-27129
-10489,-28154,-26873
-11513,-26874,-27129
-12281,-27130,-27129
-10745,-26362,-27385
-11001,-26106,-27897
-11001,-24826,-27897
-11513,-23802,-28153
-10745,-23546,-28409
-10233,-22778,-28153
-9977,-21498,-28153
-10745,-21242,-28409
-10745,-21498,-28409
-10745,-21498,-28409
-10745,-21498,-28409
-10489,-21242,-28153
-9977,-20986,-27897
-12793,-21498,-27641
-10489,-21498,-27385
-10233,-21242,-27641
-10233,-20986,-27897
-9721,-20986,-28409
-10489,-20986,-28409
-10233,-20730,-28409
-10489,-20986,-28153
-8953,-20218,-27897
-11001,-20218,-27641
-10745,-20474,-28153
-10745,-20218,-27641
-9209,-19962,-27641
-9977,-19962,-27641
-10233,-19962,-27897
-10489,-19962,-28153
-10233,-19706,-27897
-10233,-19706,-27129
-9209,-19706,-27385
-9465,-19706,-27129
-9721,-19450,-27129
-10233,-19450,-27385
-10233,-19962,-27385
-10489,-19962,-27385
-10233,-19706,-27641
-12025,-20730,-27129
-11001,-20730,-27129
-11001,-20986,-27385
-11001,-19962,-27385
-9465,-19450,-27385
-9977,-20218,-27385
-10233,-20218,-27385
-11257,-20218,-27385
-9209,-19962,-27641
-9465,-20218,-27385
-9721,-19962,-27641
-11769,-20474,-27641
-10745,-20474,-27641
-10233,-20474,-27641
-9721,-20474,-27897
-10745,-20474,-27897
-10745,-20474,-28153
-10745,-20474,-28409
-9977,-20474,-28665
-9977,-20730,-28665
-9977,-20730,-28665
-10745,-20730,-27897
-10745,-21242,-27641
-10745,-21242,-27897
-10745,-21498,-28409
-14073,-22266,-28409
-11513,-21754,-27641
-11257,-21498,-27897
-11001,-21242,-27641
-10745,-21242,-27641
-11257,-21242,-27385
-11257,-21498,-26873
-11769,-20474,-26105
-10233,-19706,-26105
-10489,-19450,-26105
-9465,-18426,-26873
-9977,-17146,-27385
-9465,-16122,-28153
-9465,-16122,-29177
-8697,-16122,-30969
-9465,-15866,-30713
-8953,-16378,-30713
-8953,-17658,-29689
-8697,-17658,-29945
-9977,-17658,-29945
-9721,-16122,-29689
-10489,-17658,-29433
-10489,-20474,-28921
-10745,-21754,-28409
-10489,-22010,-28409
-12793,-22266,-28409
-10745,-22010,-28665
-11257,-22010,-28921
-11001,-21754,-28665
-10233,-21498,-28921
-10489,-21754,-27641
-11001,-23546,-25081
-12281,-26362,-21753
-11257,-28922,-19193
-11001,-29690,-17913
-8953,-29690,-18937
-7673,-24570,-24313
-4601,-11514,27911
-2553,4614,12808
-761,15622,2056
-2553,18438,-2296
-4090,18694,-8440
-7418,12806,-12280
-9722,3334,-10744
-11770,-3578,-2809
-13306,-7162,6407
-14073,-9466,13831
-13561,-12282,18183
-12537,-15098,21767
-10745,-16122,25351
-13305,-16122,26887
-11001,-19194,32007
-11769,-21754,-30969
-11001,-23290,-29433
-10489,-23290,-28921
-11001,-23290,-28665
-11513,-24314,-27641
-12281,-25594,-27385
-10745,-24826,-27641
-11001,-24314,-27129
-11001,-25082,-26873
-11513,-25338,-26617
-11001,-25338,-26361
-11513,-25850,-25849
-10745,-25850,-25849
-11513,-25850,-25337
-11257,-25850,-25593
-11513,-26618,-25337
-10489,-26874,-25081
-11001,-26874,-24825
-11001,-26874,-24825
-11513,-26874,-25081
-11513,-27130,-24825
-12025,-27642,-24825
-11513,-27642,-25081
-14329,-27898,-24313
-11513,-27898,-24057
-11513,-28154,-24569
-11513,-28666,-24569
-11257,-28666,-24825
-11513,-28666,-24313
-11257,-28666,-23545
-12537,-29434,-23801
-12281,-29178,-23801
-12281,-29434,-23033
-11769,-29434,-22777
-12281,-29690,-23033
-12537,-30458,-23033
-12793,-30714,-23033
-12025,-30458,-23033
-12537,-30458,-22521
-12025,-30202,-22521
-12537,-29946,-22265
-11769,-29946,-22777
-12537,-30714,-22777
-12281,-30714,-22521
-13305,-30458,-22521
-12281,-29434,-22265
-12025,-29434,-22521
-11001,-28410,-22265
-14073,-28666,-22265
-12025,-27130,-23033
-12793,-26106,-23289
-12025,-25850,-23033
-11513,-24570,-23289
-11513,-23802,-23801
-11513,-23034,-24569
-11513,-23290,-24825
-10489,-22522,-24569
-11513,-22010,-24825
-10745,-21498,-25593
-11257,-21498,-25593
-11001,-21498,-25849
-11257,-21498,-26105
-10745,-20986,-26361
-11001,-20474,-26361
-10233,-20730,-26873
-10745,-21242,-26873
-9465,-20474,-26873
-11257,-20218,-26361
-11001,-20218,-26105
-11257,-21242,-26361
-11001,-21242,-26873
-11769,-21498,-26617
-10745,-20986,-26873
-13305,-20986,-26105
-11001,-20730,-26105
-11513,-20730,-26105
-11257,-20218,-26617
-11257,-20474,-26617
-11001,-20474,-26361
-11257,-20474,-26105
-12281,-20730,-26361
-12025,-20730,-26361
-11257,-20474,-26105
-10745,-20730,-26105
-11513,-21242,-25849
-11257,-20730,-25593
-11769,-20218,-25593
-10745,-20474,-25849
-10745,-20730,-25593
-11001,-20218,-25849
-11769,-20218,-25593
-10233,-20218,-25593
-10745,-20730,-25593
-10233,-20730,-26105
-11513,-20730,-25849
-11513,-20474,-25593
-11257,-21498,-25849
-9977,-21754,-25849
-12793,-21242,-25849
-11001,-20474,-26361
-11513,-20474,-26105
-10745,-20730,-26361
-10745,-20474,-26361
-11001,-20474,-26361
-11001,-20986,-26361
-11257,-20986,-26105
-11001,-20730,-26105
-11257,-20730,-26105
-11001,-20986,-26873
-11257,-20474,-27129
-11001,-20730,-26361
-11001,-20474,-26361
-10489,-20474,-26617
-10745,-21242,-26617
-10233,-20218,-26361
-11257,-19962,-25337
-11257,-19450,-25081
-11257,-19450,-25081
-11001,-19194,-24569
-11513,-18682,-24313
-10233,-16890,-25337
-10489,-16378,-26105
-8441,-15610,-28409
-11769,-15354,-28409
-9465,-15354,-28665
-9721,-16890,-28665
-9209,-18170,-29433
-9721,-18170,-29433
-10233,-16890,-29177
-10745,-16378,-28409
-11257,-18170,-27897
-11001,-20474,-28153
-10745,-21242,-27641
-10745,-21242,-27385
-11257,-21754,-27129
-11513,-22266,-27641
-11769,-22778,-27897
-11001,-22010,-27897
-11513,-22266,-27385
-11257,-22010,-26873
-11769,-23034,-24825
-11001,-25338,-21497
-11769,-28922,-18169
-10745,-30458,-17401
-10233,-28922,-18169
-7161,-24058,-23801
-5625,-12794,28935
-2297,2822,13064
-5113,7174,8968
-4089,18182,-1016
-6906,16646,-6136
-8186,10758,-10488
-10746,2310,-8696
-13562,-3578,-2041
-15354,-6906,7687
-14585,-9466,15111
-14073,-12794,19207
-13305,-14074,22535
-11513,-14842,25863
-11513,-16890,29703
-11257,-19706,32519
-11257,-21754,-30457
-11257,-21754,-29177
-11257,-22010,-27897
-10745,-22778,-27385
-11257,-24058,-27129
-11001,-24058,-26617
-11769,-24314,-26105
-11257,-24314,-26105
-11769,-24826,-26105
-11513,-25338,-26105
-12537,-25850,-25337
-12025,-25850,-25081
-14841,-25850,-24825
-11001,-26106,-25081
-13049,-26106,-24313
-12793,-25850,-24569
-12281,-25594,-24569
-11769,-25850,-24569
-12025,-26106,-24057
-12025,-27130,-24057
-12281,-27386,-24313
-12025,-27130,-24313
-12281,-27130,-23801
-12281,-27386,-23289
-12025,-27898,-23033
-12025,-28154,-23033
-11769,-27898,-23289
-12025,-28154,-23289
-11257,-28410,-23289
-12025,-28922,-22777
-12025,-28666,-22777
-12793,-29434,-22521
-12025,-29434,-22777
-12537,-29690,-21241
-12281,-29690,-21497
-13049,-29946,-21497
-11769,-29946,-22009
-14585,-29946,-21753
-12025,-29690,-21497
-12793,-29690,-21241
-12025,-29434,-20985
-12025,-29178,-20985
-11513,-28922,-20985
-12281,-29178,-20985
-11769,-28410,-20985
-11769,-28154,-21241
-11513,-27386,-21497
-11513,-26618,-21241
-11513,-26106,-20985
-11257,-25082,-21241
-11257,-24826,-21753
-11257,-23546,-22521
-11513,-22522,-22521
-10489,-22010,-23289
-10745,-21242,-23289
-10489,-20730,-23801
-11001,-20730,-23801
-10489,-20474,-24313
-11001,-20730,-24569
-10233,-20474,-24569
-11257,-20474,-24313
-10489,-20218,-25081
-12793,-20474,-24825
-9977,-19706,-25337
-10745,-19450,-25337
-10233,-19706,-25081
-10489,-19962,-25337
-9977,-19706,-25849
-10489,-19706,-25593
-10233,-19450,-25337
-10489,-19450,-25337
-9977,-19706,-25337
-9977,-19706,-25593
-9977,-19450,-25593
-10745,-19706,-25593
-11001,-20218,-25337
-10489,-20474,-25337
-10489,-19962,-25081
-10233,-19450,-26105
-11001,-19962,-25849
-10745,-20218,-25337
-11001,-20218,-25081
-10233,-19450,-25081
-11257,-20218,-25081
-10745,-19962,-25337
-11257,-20474,-25593
-9977,-20474,-25593
-12793,-19962,-25081
-10745,-19706,-25081
-11513,-19450,-24825
-10489,-20218,-25337
-11001,-20730,-25593
-11257,-20218,-25337
-11257,-19962,-25337
-10745,-20218,-25593
-11001,-20218,-25593
-10745,-20218,-25593
-10745,-20474,-25593
-10745,-20474,-25593
-11001,-20474,-25849
-11001,-20730,-25849
-10745,-20474,-25849
-10489,-20474,-25849
-10745,-20474,-26361
-11513,-20218,-26617
-10745,-20474,-26361
-11257,-20218,-25593
-10745,-20730,-25337
-11513,-20986,-25337
-11001,-20986,-26361
-11513,-20986,-26105
-9977,-20218,-26105
-13049,-20474,-25593
-10489,-20474,-25849
-11257,-20218,-25849
-10745,-20218,-25337
-11513,-20218,-24569
-11513,-19962,-24825
-11257,-19194,-25081
-9721,-17402,-25337
-9721,-15866,-25081
-8953,-15610,-26361
-9209,-15610,-28153
-8953,-15098,-28921
-8953,-15098,-28921
-9209,-16378,-28921
-9209,-17658,-29177
-8953,-16890,-28921
-8697,-15610,-29177
-10233,-16890,-28153
-9721,-19450,-27641
-10489,-21498,-27641
-10745,-21242,-26873
-11257,-20986,-27129
-11001,-21242,-27385
-11769,-21498,-27385
-10745,-22010,-27129
-13049,-21754,-27129
-10233,-21754,-27129
-11769,-22266,-25337
-11257,-23546,-22265
-11001,-27386,-19193
-10489,-29690,-18169
-10489,-29178,-18169
-7673,-25850,-19705
-5369,-16378,-28409
-2297,-2042,22279
-2041,11014,8712
-1785,17926,1800
-4345,18182,-1784
-7418,13830,-6648
-11258,5126,-7928
-12538,-1530,-2809
-13050,-5626,5639
-14585,-9722,13319
-14585,-12538,19207
-14585,-14842,22535
-12281,-15610,25607
-11769,-17146,29447
-11513,-19194,32263
-12537,-21754,-30713
-10745,-22522,-29177
-13049,-22266,-28409
-11257,-22778,-27129
-12537,-24058,-26873
-11257,-24314,-26361
-11513,-24314,-25849
-11257,-24314,-25849
-12281,-24570,-25849
-11513,-24826,-25849
-11257,-25338,-25337
-10489,-25082,-25081
-11769,-25594,-24825
-11769,-25338,-24569
-12025,-25594,-24313
-12025,-26106,-24057
-12537,-26618,-24057
-12281,-26106,-24057
-11769,-26618,-23801
-11769,-26618,-23801
-11769,-26618,-24057
-12281,-27642,-23801
-12025,-27386,-23801
-12025,-27642,-23801
-12025,-27386,-23545
-13049,-27642,-23289
-12025,-27898,-23289
-14585,-28410,-23289
-11513,-28410,-23801
-12025,-28666,-23801
-11769,-28922,-23289
-12793,-29178,-23289
-12025,-28922,-23289
-12025,-28666,-23033
-10745,-28410,-22777
-12025,-29690,-22777
-11769,-29690,-22777
-12793,-29434,-22265
-12025,-28410,-22265
-12281,-28922,-22009
-12281,-29178,-22009
-12281,-29178,-21753
-11257,-27642,-21753
-11257,-27130,-22009
-11001,-26874,-22521
-10745,-26874,-22265
-11001,-26618,-22009
-10745,-25850,-22009
-11001,-24826,-22521
-11257,-24314,-23033
-11001,-24058,-23289
-9977,-22778,-23545
-12793,-22266,-23545
-10745,-20986,-24313
-11001,-20986,-24057
-10745,-21242,-23801
-11513,-21498,-24057
-11257,-20474,-24569
-11769,-20474,-24825
-10489,-19962,-24825
-11001,-20218,-24313
-10745,-19962,-24825
-11769,-20218,-25081
-10745,-19962,-24825
-11257,-20218,-25081
-11513,-20474,-25337
-12025,-20474,-25337
-11001,-19962,-25337
-11257,-20218,-25593
-11513,-19962,-25337
-11513,-19962,-25337
-11257,-19962,-25081
-11001,-20218,-24569
-11257,-20474,-24569
-11769,-20730,-24569
-11769,-20730,-25337
-10745,-19706,-26105
-13305,-19450,-25849
-11001,-18426,-25849
-11001,-16634,-26105
-9721,-14842,-27129
-9465,-13562,-27129
-8185,-11770,-25337
-8441,-10234,-22521
-6137,-8186,-20729
-6137,-8186,-18169
-5369,-8954,-14585
-7161,-11258,-9721
-7161,-17914,-1273
-7417,-27130,11783
-6904,32006,21511
-9208,23046,30983
-9976,11526,-25849
-11256,3078,-22777
-13816,2310,-23545
-15864,5638,-26617
-16120,10502,-29689
-16376,14598,-31481
-16120,16390,31751
-17144,17670,26375
-17656,20230,21255
-16632,24326,19207
-18168,26118,19207
-15864,28166,18695
-15864,29958,11527
-14584,31750,-249
-13561,-32250,-11513
-11257,-29690,-20473
-11769,-26106,-26873
-11769,-21754,-32505
-13049,-19706,30727
-12025,-18938,30471
-12537,-19706,31239
-12537,-19450,30215
-13049,-19450,27911
-12025,-19450,26631
-12281,-19706,26887
-11513,-18682,26631
-12281,-18426,24839
-12537,-17914,23559
-12537,-17658,23815
-12281,-17402,23303
-12537,-17146,22023
-12281,-16378,20487
-12537,-15354,19975
-12281,-14842,19463
-11001,-13818,17927
-12793,-13050,17159
-12025,-12794,15111
-12025,-11514,14855
-12025,-10746,12807
-12537,-9978,10247
-12281,-8698,9479
-12281,-8442,8967
-11513,-6650,7431
-11769,-6138,5639
-11001,-5370,4615
-11769,-5114,4359
-10489,-3834,3335
-11513,-3322,2055
-11257,-3066,775
-12025,-3066,1287
-11513,-2554,1799
-10745,-2554,1543
-9465,-2554,1543
-11001,-2298,2567
-11001,-2810,3079
-12025,-3834,4359
-11513,-4346,5639
-11001,-4602,7175
-11257,-5114,8199
-11001,-6906,9991
-12281,-7674,11271
-11769,-8698,14599
-12281,-9210,16647
-11513,-10490,18439
-11513,-12026,21255
-11513,-13306,23047
-12025,-13306,25095
-12025,-13562,26631
-12025,-16122,29447
-11513,-16634,31495
-12793,-16634,32519
-12793,-17146,-31737
-12793,-18682,-29689
-12025,-18682,-28409
-12793,-18682,-27385
-12281,-18682,-26873
-12537,-19450,-25849
-11769,-19450,-25593
-12281,-19450,-25337
-12025,-19706,-25337
-13305,-20986,-24825
-12537,-20730,-24313
-12025,-20730,-24313
-12025,-20730,-24569
-12025,-20730,-24569
-13561,-20986,-24313
-12793,-21242,-24569
-13049,-21242,-24313
-13049,-21754,-24313
-13561,-21498,-24057
-13049,-21754,-24057
-13305,-21754,-24313
-12281,-21242,-24313
-12793,-21242,-24057
-12793,-20986,-24313
-13305,-22010,-24313
-12281,-22010,-24825
-12793,-22010,-24569
-12793,-21754,-24569
-13561,-21498,-24313
-11769,-21498,-24313
-12025,-22266,-24313
-12281,-22522,-24569
-13561,-22266,-24569
-11769,-22522,-24825
-12025,-22778,-24569
-12281,-22522,-24569
-12793,-22778,-24313
-12793,-23034,-24569
-12281,-23290,-24313
-12793,-22522,-24569
-12025,-22522,-24569
-12281,-22522,-24569
-12537,-22522,-24569
-12281,-22778,-24569
-11769,-22266,-25081
-11769,-22266,-25337
-11769,-22266,-25593
-11769,-23034,-24825
-11001,-23290,-24569
-12281,-23290,-24569
-12281,-23034,-25337
-12793,-22778,-25337
-11769,-22778,-25593
-12793,-23802,-25593
-12025,-23290,-25593
-12793,-23290,-25337
-12025,-22778,-25337
-12281,-22522,-25081
-12025,-22522,-25081
-12793,-22778,-25337
-12281,-23034,-25593
-12793,-23290,-25337
-12281,-23290,-25081
-12281,-23546,-25593
-13305,-23546,-25593
-12281,-23802,-25593
-12537,-23802,-25849
-12537,-23802,-25593
-12537,-24058,-24825
-12537,-23546,-24825
-12281,-23290,-24825
-12281,-23034,-25593
-12537,-23290,-25849
-11513,-23034,-25337
-12537,-23290,-24057
-12537,-23290,-24569
-13305,-23546,-24825
-13305,-23546,-25337
-13305,-23546,-25337
-11769,-22778,-25081
-12025,-23290,-24825
-12281,-23546,-25593
-13817,-23290,-25337
-12537,-23290,-25081
-12793,-23546,-25081
-12025,-23802,-25081
-12793,-24058,-25337
-12793,-23546,-25593
-12281,-23546,-25337
-12537,-23290,-25337
-11769,-23290,-25081
-11769,-23290,-24825
-12281,-23546,-24825
-12537,-23546,-24825
-12281,-23290,-24825
-12281,-23290,-25081
-12281,-23802,-24825
-12537,-23802,-24825
-12537,-24058,-25081
-12281,-24058,-25081
-11769,-23034,-25337
-13049,-23034,-24825
-12537,-23290,-24825
-12537,-24314,-25081
-12281,-24570,-25081
-13049,-24314,-24825
-12281,-23546,-25081
-13049,-23546,-24825
-12537,-23546,-24825
-13049,-23290,-24825
-12025,-23290,-24569
-12537,-22778,-23545
-12537,-22266,-23289
-12537,-21754,-23289
-13049,-21242,-23801
-12793,-21498,-22777
-12793,-22522,-20217
-11257,-25594,-18169
-8953,-24826,-19193
-8185,-21754,-22009
-6905,-15098,-28409
-3577,-2810,26887
-2297,11526,15368
-2297,20998,6408
-4601,22278,4360
-7673,17670,1544
-11513,5638,1032
-15097,-4346,4103
-18937,-8442,10503
-17401,-11514,18439
-16121,-15354,23815
-15865,-18682,25351
-16121,-20474,27143
-13817,-20730,29447
-14329,-23546,-32505
-14329,-26106,-30457
-14585,-26874,-29177
-13817,-26874,-27897
-14585,-27642,-26361
-15097,-28666,-26361
-14841,-29178,-25593
-15097,-29434,-25337
-14585,-29434,-24057
-13817,-30202,-24313
-14329,-30970,-24057
-14073,-30970,-24313
-14073,-30202,-24057
-14329,-30202,-23545
-14585,-30458,-23289
-14585,-30458,-23545
-14585,-30970,-23545
-14585,-30970,-23801
-14073,-30970,-23801
-13817,-31226,-23545
-12793,-30970,-23289
-13817,-30970,-23545
-13817,-30714,-23545
-14585,-30714,-23289
-14585,-30714,-23545
-15353,-30714,-23289
-13817,-30970,-23033
-13817,-31226,-23289
-14073,-30970,-23289
-14073,-31226,-23033
-13305,-30202,-23033
-13049,-29434,-22777
-13305,-29690,-23033
-14329,-29690,-23033
-14073,-28922,-22521
-13049,-28922,-21753
-12537,-28410,-21753
-12537,-28666,-21753
-13817,-28410,-21497
-13561,-26874,-21241
-13049,-26618,-21241
-12025,-26362,-21753
-12537,-26106,-21753
-12537,-24826,-20985
-13561,-24570,-20217
-12793,-24314,-20473
-12793,-24314,-20985
-12793,-22778,-21497
-13561,-22522,-21497
-11513,-21498,-21241
-12537,-21498,-20729
-12793,-20730,-21241
-12793,-20218,-22009
-12025,-19962,-22009
-11769,-19706,-21753
-11001,-19450,-22009
-11513,-19706,-22009
-11769,-19962,-22265
-13561,-20474,-22521
-13561,-21242,-22777
-13561,-21498,-22521
-13305,-21754,-22777
-13305,-21498,-23289
-13305,-21242,-24313
-13817,-21498,-24569
-13561,-22778,-23801
-13817,-23290,-23801
-14073,-23290,-23801
-13561,-23034,-24569
-14073,-23034,-24313
-14073,-23546,-24569
-14073,-24058,-24569
-13305,-23802,-25337
-14329,-23546,-25337
-13817,-23802,-24825
-14585,-24058,-23801
-14073,-24314,-24313
-13817,-24058,-25337
-13305,-23802,-25593
-13561,-23802,-25081
-12793,-23802,-25081
-13817,-24314,-25337
-13305,-24058,-25337
-14585,-24570,-24313
-14329,-25082,-24313
-13817,-25338,-24313
-13049,-25082,-24569
-13561,-23802,-24825
-14073,-24058,-24825
-14585,-24570,-25081
-14329,-24826,-24825
-13817,-24826,-25081
-13561,-25082,-25081
-13817,-25082,-24825
-14841,-25338,-24825
-13561,-24570,-25081
-13561,-24570,-25081
-13561,-25082,-25081
-14073,-25850,-25081
-14073,-25594,-26105
-14329,-25082,-25849
-13049,-25082,-25849
-14073,-25338,-26105
-13817,-25338,-26105
-14841,-25850,-26105
-13561,-25594,-26105
-13817,-25850,-25849
-14073,-25082,-26617
-14329,-25338,-27385
-14073,-25594,-27385
-13817,-25850,-26617
-13305,-25850,-26617
-14073,-25594,-27385
-14073,-25082,-27641
-14841,-25594,-27385
-14329,-26106,-26617
-14329,-26106,-26361
-14073,-26106,-26873
-13817,-26362,-27129
-14073,-26362,-26873
-14329,-26106,-26873
-14329,-26106,-27129
-13817,-25850,-27897
-14585,-26106,-27897
-13817,-26106,-28153
-14841,-26618,-27129
-13817,-26362,-27129
-13817,-26362,-27897
-13561,-25082,-28153
-13817,-25338,-27385
-12793,-25338,-27385
-14073,-27130,-27641
-14073,-26618,-27641
-14585,-26618,-26873
-14329,-26106,-27129
-14841,-26106,-26617
-13305,-25850,-26617
-13305,-25082,-26361
-13817,-24314,-26361
-13817,-23290,-26873
-12793,-22266,-27129
-13049,-21754,-27897
-13049,-21242,-28665
-12793,-20730,-29433
-12793,-20986,-29689
-12025,-21498,-30713
-12281,-22010,-30713
-12281,-22010,-30969
-13305,-23034,-31225
-13305,-23290,-29433
-14073,-24314,-28153
-13817,-25082,-28153
-14329,-27130,-27897
-14073,-27386,-27897
-14585,-27130,-28153
-13305,-26618,-28665
-14329,-27130,-28921
-13817,-27130,-29433
-14073,-27130,-28921
-14073,-27386,-27897
-14585,-28922,-26105
-14585,-31738,-22521
-15609,30214,-19449
-14841,30470,-19705
-13561,-32762,-21241
-9465,-23546,-27641
-7161,-8954,29191
-5625,4870,19208
-5625,12550,10760
-7417,12294,8200
-10233,7686,8200
-13817,6,8968
-17145,-6906,10247
-18681,-11258,12807
-18937,-15354,16647
-19193,-19706,21511
-18169,-22522,25607
-18169,-23802,28167
-15865,-23802,29191
-15353,-24570,30215
-13817,-25082,30983
-14329,-27642,-30457
-14585,-27642,-29177
-15865,-27642,-28665
-15353,-29178,-27897
-15865,-30458,-26873
-13049,-30202,-27129
-13817,-29690,-27129
-15353,-30202,-26873
-16377,-30458,-25849
-15097,-30970,-25849
-14841,-30970,-25849
-14585,-30970,-26105
-15097,-31226,-26361
-15097,-30970,-26105
-14841,-30970,-25849
-14329,-31482,-25849
-14329,-31482,-25849
-15097,-31738,-25593
-15353,-31994,-25337
-16121,-32250,-25593
-15097,-31994,-25593
-15097,-31738,-25593
-14073,-31482,-25849
-14585,-32506,-25337
-12793,-32506,-25337
-14841,-32506,-25337
-14841,-32506,-25593
-15097,32518,-25337
-14841,32006,-25593
-15609,32006,-25849
-14073,32006,-25849
-14329,31750,-25337
-14841,31494,-25337
-15865,31750,-25337
-14585,31750,-26105
-14841,31750,-26105
-14073,31494,-26105
-15097,31494,-26105
-15097,32006,-25849
-14329,32262,-25593
-13817,32262,-25337
-13817,-32762,-26361
-13817,-32762,-26873
-14073,-31738,-26873
-13817,-31738,-26361
-14073,-31482,-27129
-14329,-30458,-27129
-14073,-29690,-27385
-13817,-29434,-27129
-11513,-28922,-27641
-14585,-27898,-27641
-13817,-26618,-27897
-14585,-26362,-27897
-13817,-26362,-27129
-14329,-25850,-27385
-13305,-24570,-27129
-14073,-24314,-26617
-13049,-24570,-26617
-14585,-24826,-26361
-14073,-25082,-26105
-13817,-24570,-26105
-13049,-24314,-26361
-13817,-24058,-25849
-13561,-24314,-25337
-13817,-24826,-25337
-13817,-24570,-25593
-14073,-24570,-25593
-14073,-24826,-25593
-14073,-25082,-25337
-14073,-25594,-24825
-14073,-25338,-25337
-13561,-24570,-25081
-11769,-23802,-25337
-13049,-24314,-25081
-11513,-24314,-25081
-14841,-25082,-24825
-13561,-24570,-25081
-14073,-24314,-24825
-13817,-24314,-24825
-14585,-24826,-24313
-13817,-24826,-24313
-14073,-24314,-24569
-13817,-23802,-25081
-15353,-23546,-25081
-13561,-24058,-25081
-13561,-24314,-24825
-13561,-23802,-24825
-14841,-23802,-24825
-14585,-24058,-25081
-14073,-24058,-25081
-12793,-24314,-25081
-13817,-24058,-25081
-14585,-24058,-24825
-14329,-24570,-25081
-13049,-24570,-24825
-13049,-24058,-24569
-13561,-24058,-24569
-13817,-23546,-25081
-13561,-24058,-25337
-9977,-24058,-25337
-13817,-24058,-25081
-14073,-23802,-25337
-14329,-24058,-25593
-13305,-24058,-25593
-14585,-24314,-25081
-13817,-24570,-25337
-13817,-24570,-25081
-12793,-24058,-25593
-14329,-24058,-25849
-14073,-24058,-25849
-14073,-24314,-25337
-13305,-24826,-25337
-13561,-24570,-25337
-13561,-24570,-25593
-14329,-24826,-24569
-13561,-24826,-24313
-13561,-24314,-24313
-13305,-23546,-24569
-13305,-23034,-24057
-13561,-23034,-23801
-12281,-22010,-24313
-11257,-19706,-24569
-11257,-18938,-25337
-11769,-18938,-26105
-8185,-18682,-26617
-10745,-19194,-27129
-10745,-19962,-28409
-11513,-19962,-28409
-11513,-20218,-27385
-12281,-20218,-26361
-11769,-20218,-26617
-13049,-22266,-26617
-12793,-23546,-26617
-14073,-24058,-25849
-13305,-25338,-25337
-13561,-25338,-25337
-12793,-25082,-26105
-13817,-24826,-25849
-13561,-24826,-25849
-13561,-25082,-25593
-11257,-25082,-25593
-12537,-25082,-23033
-13305,-29178,-18937
-14585,32006,-16121
-13817,30982,-16121
-11513,-32250,-16889
-9465,-25850,-20729
-5881,-13818,-31993
-4089,2054,19720
7,7943,15624
-3065,16902,5640
-6393,14598,4360
-11513,7174,1544
-13817,6,1288
-14841,-5370,5639
-15353,-10490,12295
-17657,-15098,18695
-17145,-17914,22791
-16633,-19962,26375
-13561,-20474,29959
-14073,-22010,32519
-14329,-23546,-31225
-14841,-25082,-28409
-13049,-25850,-26105
-13049,-26106,-25593
-12793,-26618,-25593
-13561,-27386,-25081
-13049,-27386,-24825
-13817,-27642,-23801
-14073,-27898,-23801
-13817,-28154,-24057
-13049,-28154,-23545
-12793,-27898,-23545
-13305,-27898,-22521
-10233,-27898,-22777
-14585,-29434,-22521
-14329,-29434,-22265
-15097,-29434,-22265
-14841,-29434,-22009
-15097,-29946,-21497
-14073,-29946,-22009
-14073,-29946,-22009
-13817,-29690,-22009
-15097,-29434,-22521
-14329,-29690,-22265
-15097,-30714,-22265
-14329,-30714,-22521
-14585,-30714,-22521
-14329,-30458,-22777
-15097,-30970,-22265
-13817,-30970,-22009
-14841,-31482,-22265
-15097,-31994,-22777
-15097,-31738,-22777
-14329,-31994,-22521
-14585,-32506,-22521
-14585,-32506,-22265
-14585,-32762,-22777
-14585,32518,-23033
-10745,-32762,-23289
-14585,-32506,-22521
-14073,-32506,-22521
-14329,-32762,-22265
-14329,-32506,-23289
-15097,-32250,-23545
-14073,-31994,-23545
-14073,-31994,-23545
-14073,-31738,-23289
-15097,-31226,-24057
-14585,-29946,-24825
-14329,-29690,-24825
-13305,-28410,-24825
-14073,-27642,-25081
-13817,-26618,-25337
-13817,-26362,-25337
-12025,-25594,-25337
-13305,-25338,-25337
-13561,-24570,-25337
-13561,-24314,-25337
-13561,-24314,-25593
-13817,-24314,-25337
-12793,-23546,-25337
-13049,-23290,-25081
-13305,-23034,-25081
-9465,-22522,-25337
-13561,-23290,-25337
-13817,-23546,-25337
-14073,-23546,-25337
-13817,-23546,-25081
-13817,-23290,-24825
-12793,-23290,-25593
-13305,-23290,-25593
-13305,-23034,-25593
-13561,-22778,-25593
-12793,-22266,-25593
-13561,-22266,-25593
-13305,-22266,-25337
-13817,-22522,-25593
-12793,-22522,-25593
-13305,-22010,-25337
-12281,-22010,-25081
-12793,-22010,-25081
-13049,-22010,-25081
-13817,-22522,-25081
-13561,-22266,-24825
-13561,-21754,-25081
-12025,-22010,-25337
-12281,-22010,-25337
-13305,-22010,-25081
-9465,-21498,-25849
-12537,-21754,-25593
-12537,-22010,-25081
-13561,-21754,-24825
-13561,-21754,-24825
-13817,-22266,-25081
-12537,-22522,-25081
-12537,-22010,-24313
-12537,-22010,-24057
-13305,-21754,-24313
-12025,-21498,-25081
-13561,-22266,-24825
-13305,-22010,-25337
-13049,-22010,-25337
-12025,-21754,-25337
-12281,-22010,-25337
-12281,-22266,-25337
-12793,-22266,-25337
-12537,-22266,-25337
-13049,-23546,-25337
-12281,-23546,-25081
-12537,-22778,-24825
-12281,-22010,-24569
-12281,-22266,-25337
-12793,-22778,-25593
-9977,-23034,-26105
-13049,-23034,-25849
-12537,-22522,-26105
-12793,-22522,-25593
-13305,-22778,-24825
-13561,-22522,-24825
-12281,-22010,-24569
-12537,-22266,-24569
-12281,-21754,-24569
-13049,-21498,-24569
-13049,-20474,-24569
-12281,-18938,-24825
-10489,-17658,-25593
-11001,-17914,-26617
-11001,-17146,-28409
-11513,-17146,-27897
-10233,-17914,-27641
-10745,-18938,-27897
-10489,-18938,-28409
-12025,-18938,-28409
-11513,-18682,-28409
-12281,-20218,-27385
-12025,-21498,-26617
-12793,-22522,-26361
-12793,-23290,-26105
-8441,-23290,-26361
-11769,-23034,-26361
-12537,-23034,-26617
-13049,-23034,-26361
-13049,-23290,-26105
-13305,-24058,-26105
-12793,-23802,-24825
-13049,-26874,-21753
-13305,-30970,-17913
-13817,32262,-16121
-12537,-32762,-17145
-10489,-29178,-20217
-6649,-17402,-28921
-4089,-1786,23047
-1785,12294,10504
-2809,17670,4616
-4345,17414,2824
-8953,12038,-248
-11770,3334,-1272
-14842,-2554,1799
-15097,-6906,7687
-16633,-11770,15111
-16889,-15866,21255
-16633,-18682,24071
-14073,-19450,27143
-9465,-19450,27911
-13049,-22010,-32249
-13561,-23546,-30457
-13561,-24314,-29177
-13561,-25082,-27641
-13561,-25850,-26361
-13561,-26362,-26105
-13817,-26618,-25849
-13561,-26362,-25337
-13817,-27130,-25081
-13817,-27386,-24569
-14073,-27386,-24313
-13305,-27130,-24569
-13049,-26874,-24313
-13049,-27130,-24313
-14073,-28154,-23801
-12537,-27898,-23545
-13817,-27898,-23033
-13561,-27898,-23033
-14841,-27898,-23033
-13817,-28154,-22777
-14329,-28922,-22777
-13561,-28922,-23033
-14329,-28666,-23033
-14329,-28410,-22521
-9977,-28410,-22521
-13561,-29178,-22521
-14329,-28922,-22777
-14073,-28922,-22777
-14585,-29434,-22521
-14073,-29434,-22521
-14073,-29434,-22777
-14329,-30202,-22777
-14073,-30458,-22777
-14329,-30458,-22777
-14329,-30458,-23033
-14329,-30970,-23289
-13561,-30970,-23033
-13817,-31226,-23033
-13561,-31226,-23289
-14585,-31482,-23289
-14329,-30202,-23545
-14585,-30458,-23545
-13305,-30458,-23545
-13817,-31226,-23545
-13561,-30970,-23545
-14585,-30202,-23289
-13049,-29178,-23545
-13049,-29434,-24057
-13305,-29178,-24313
-10489,-28154,-24569
-13049,-26874,-24569
-12537,-26106,-24825
-12537,-25594,-25081
-14329,-25082,-25337
-13817,-23802,-25081
-12793,-23802,-24825
-12281,-23802,-25337
-13049,-22778,-25337
-13049,-21754,-25593
-12793,-20986,-25337
-12281,-21498,-25081
-11513,-21242,-25081
-12793,-20986,-24825
-12537,-20986,-25337
-12281,-21242,-25081
-11513,-21242,-24825
-12025,-21498,-24825
-12281,-21242,-25849
-13305,-20986,-25849
-12537,-20986,-25849
-12537,-20986,-24825
-11257,-20730,-24569
-12025,-20986,-25337
-11769,-20986,-25593
-8185,-20730,-25593
-12025,-20730,-25593
-11769,-20474,-25337
-12281,-20730,-25081
-13561,-20474,-25337
-13049,-20730,-25593
-12025,-20474,-25849
-11513,-20474,-25593
-12537,-20474,-25593
-12537,-20218,-25337
-12537,-20218,-25081
-12281,-20218,-24825
-12025,-19962,-25337
-12025,-19962,-25337
-11769,-20218,-25337
-12281,-20474,-25337
-12281,-20474,-25081
-12281,-20474,-24825
-11513,-20218,-25081
-12281,-20218,-25081
-11513,-19962,-24825
-12025,-19962,-24825
-11257,-19706,-25081
-11769,-20730,-25081
-11513,-20986,-25337
-8441,-20986,-25337
-11513,-20474,-25337
-11513,-20730,-25081
-11257,-20730,-25593
-13049,-20730,-25593
-12281,-20730,-25849
-11513,-20474,-26105
-10233,-20474,-26105
-12025,-21498,-26105
-12281,-21754,-26105
-12537,-21242,-26105
-11769,-20986,-26361
-11513,-20986,-26105
-11769,-20730,-25849
-11257,-20730,-25849
-11257,-20986,-25849
-10745,-20986,-25849
-12025,-21242,-25849
-12025,-20986,-25849
-12281,-20730,-25849
-11513,-20218,-24825
-11513,-19450,-24569
-10489,-19194,-25081
-10745,-19194,-25337
-9977,-18170,-25593
-6137,-17402,-25593
-9977,-15866,-26361
-9721,-15610,-28153
-9721,-15866,-28665
-10489,-16634,-28409
-9209,-16890,-29177
-9465,-16634,-29689
-10233,-16890,-29689
-11001,-17402,-28665
-11001,-17402,-28153
-11257,-19194,-27897
-11513,-20986,-27641
-12025,-21754,-26873
-12281,-22266,-27129
-11769,-21754,-27385
-11769,-22010,-27129
-11513,-22010,-27385
-11769,-22266,-27129
-11513,-22010,-26873
-12281,-22010,-25337
-13049,-23802,-23545
-13817,-27386,-20217
-12025,-30714,-17401
-11769,-31994,-16377
-10233,-29434,-18681
-6137,-28154,-20729
-4601,-8698,28679
-2297,7942,16136
-1273,18438,6152
-3577,20486,3080
-5881,17158,520
-9209,10246,-2040
-11514,3078,-1784
-14842,-2298,3335
-15609,-7418,11015
-15609,-11770,18183
-15609,-14842,22535
-15353,-16890,24839
-13049,-18170,27655
-11769,-18682,31239
-12281,-20218,-31737
-12281,-22010,-30201
-12281,-23034,-28665
-11513,-23034,-27385
-12537,-23802,-26361
-12281,-24570,-26105
-13049,-24826,-26361
-11769,-24826,-26361
-12281,-25082,-25593
-12537,-25082,-24825
-9209,-24826,-24825
-11513,-24826,-24825
-11769,-24826,-25081
-11769,-25082,-24825
-14073,-25338,-23289
-12537,-25338,-23289
-11769,-25594,-23545
-11513,-25594,-23801
-13561,-25594,-23545
-13305,-26106,-23289
-12793,-26106,-23289
-11769,-26106,-23801
-12537,-25594,-23545
-12281,-25594,-23033
-12537,-25850,-23289
-12537,-26874,-23801
-12281,-27386,-24057
-12537,-27386,-23801
-12537,-27642,-24057
-13305,-27642,-23545
-13305,-27386,-23801
-13305,-28410,-23801
-11513,-28154,-24057
-12537,-28666,-23545
-12537,-28154,-23801
-9721,-28154,-24313
-12281,-28410,-24057
-12281,-28666,-24057
-12281,-28410,-24313
-14073,-28666,-24057
-13561,-28922,-24057
-12537,-29178,-24057
-11257,-28666,-25081
-12793,-28410,-25081
-12793,-28154,-25337
-12793,-27898,-24825
-12025,-27898,-24825
-12281,-26362,-24825
-12281,-25594,-24825
-11769,-25594,-25593
-11513,-24826,-25593
-11257,-23546,-25593
-11513,-22778,-25337
-11769,-22266,-25849
-11769,-22010,-25849
-11513,-20986,-25849
-11257,-20474,-25849
-10233,-20218,-26105
-11257,-20218,-25593
-11257,-19450,-25849
-8441,-19450,-26361
-11257,-19450,-26361
-11513,-19194,-26105
-11257,-19450,-26361
-12793,-19962,-25849
-11769,-19194,-26105
-11769,-19450,-25849
-11001,-19194,-25849
-11513,-19194,-25593
-11513,-19450,-26105
-11769,-19706,-26105
-11257,-19450,-26105
-12025,-19706,-25849
-11769,-19194,-25849
-11513,-18938,-26105
-11513,-18938,-26105
-11257,-18938,-25849
-12025,-19194,-26105
-11769,-19194,-26105
-11769,-18938,-25849
-11769,-18426,-26105
-12281,-18170,-25849
-11257,-18170,-26105
-11001,-18170,-25593
-11001,-18170,-25337
-8953,-18170,-26105
-11257,-17914,-26361
-11257,-18426,-26105
-10745,-18682,-26105
-11257,-18682,-25337
-11001,-18426,-25593
-11513,-18682,-25849
-10489,-18938,-26105
-11513,-18682,-25849
-11257,-18682,-25337
-11769,-18682,-25593
-11513,-18938,-25849
-12025,-19194,-25849
-11513,-19194,-25593
-11769,-19194,-25849
-11513,-19194,-26361
-11513,-19706,-26361
-11513,-19706,-26617
-11513,-19706,-26105
-11513,-19962,-25849
-11513,-19962,-25849
-11513,-19706,-25593
-11257,-19706,-25849
-11513,-20730,-26105
-11513,-20474,-26361
-8697,-20218,-26873
-11001,-19450,-27129
-12025,-19962,-26617
-12025,-19962,-26873
-12537,-20218,-26617
-11257,-19962,-26873
-11257,-19450,-26105
-11001,-18682,-26361
-12025,-18682,-26361
-11001,-18426,-26361
-11001,-18426,-25849
-10745,-16890,-26105
-11001,-14842,-26105
-9465,-14074,-26361
-9209,-14330,-27897
-9465,-14330,-29177
-11001,-14586,-29433
-10233,-15354,-29433
-9209,-15866,-29433
-9209,-15866,-29177
-9209,-15098,-29177
-10489,-14842,-28921
-10489,-16378,-28153
-11257,-18938,-27385
-11257,-19194,-26873
-9209,-19450,-26873
-10745,-19706,-27641
-11001,-20218,-27641
-10745,-20218,-27641
-12025,-20474,-27641
-12025,-20474,-27641
-11513,-20474,-27129
-10233,-21242,-25849
-11769,-25082,-22009
-12025,-28410,-18681
-12025,-30714,-17401
-10489,-30458,-17657
-9721,-26106,-21497
-5625,-14074,-32249
-2553,3078,20232
7,17159,8456
-1529,21766,3080
-4089,20230,1544
-7929,14854,-2296
-10746,6918,-2296
-13818,518,1544
-14585,-4346,7687
-14329,-8954,14855
-14585,-12794,20487
-14585,-15098,23047
-12025,-15866,23559
-12281,-16890,29703
-11769,-18426,31751
-12025,-20986,-31225
-12537,-23034,-28921
-12025,-23034,-28409
-12537,-23290,-27897
-10745,-24058,-27641
-11769,-24826,-26873
-11769,-24570,-26617
-13049,-24826,-26105
-11769,-25594,-25849
-12793,-25594,-26105
-12537,-25338,-25593
-12793,-24826,-25849
-12281,-25082,-25593
-13049,-26362,-24825
-12793,-26362,-25081
-13049,-26362,-25081
-13305,-27130,-24825
-13305,-27386,-24313
-13049,-27386,-24313
-12281,-27386,-24313
-12537,-27130,-24313
-12537,-27386,-25337
-11001,-27898,-25593
-14073,-28154,-25081
-13561,-28410,-25337
-13049,-28410,-24569
-13561,-28666,-24313
-13561,-28666,-24569
-14585,-28922,-24825
-13305,-29434,-24825
-13561,-29178,-24825
-12793,-29434,-25081
-13561,-29946,-25081
-13817,-30202,-25081
-14585,-30202,-25337
-12793,-30202,-25337
-14073,-30714,-25081
-14073,-30970,-25337
-14329,-30970,-25337
-13817,-31226,-25337
-13817,-31482,-25593
-14329,-31482,-25849
-15097,-31482,-25849
-13305,-30714,-25849
-13305,-30458,-25593
-13305,-30714,-25593
-13561,-30458,-26361
-11513,-30458,-27129
-12793,-27642,-27129
-12793,-27386,-26617
-12793,-26874,-26617
-13817,-25850,-27129
-12537,-24826,-27641
-12793,-24314,-27897
-12793,-24570,-27897
-13049,-24058,-27641
-12793,-23290,-27641
-13305,-23290,-27129
-12281,-23546,-27385
-12793,-23546,-27129
-12537,-22778,-26873
-12537,-22522,-26873
-11769,-22778,-27129
-13817,-23034,-26873
-13561,-22778,-27641
-13305,-22778,-27641
-12537,-22522,-27897
-13305,-22522,-26617
-13305,-22266,-26873
-12793,-22266,-27385
-11001,-22522,-27385
-11513,-21498,-27385
-11513,-21242,-27129
-14329,-22010,-27129
-13305,-22778,-27385
-12281,-22522,-27385
-12025,-21754,-26873
-12025,-20474,-27129
-12281,-20730,-27129
-12281,-21498,-27129
-12537,-21498,-27129
-12537,-21242,-27129
-12793,-20986,-26617
-12025,-21754,-26105
-12793,-22266,-26617
-12025,-21242,-27641
-12537,-21242,-27641
-12537,-21242,-27385
-13049,-21242,-26617
-12793,-21242,-26617
-13817,-21754,-26361
-12793,-22266,-26617
-12537,-22010,-26873
-11769,-22266,-26617
-12025,-22522,-26873
-12025,-22266,-27385
-12025,-22266,-27385
-10745,-23290,-27129
-13049,-23290,-26873
-12793,-23034,-27641
-12793,-22522,-27641
-13049,-21754,-27897
-12281,-21754,-28153
-13049,-22266,-27641
-12281,-22522,-27385
-12281,-22266,-27897
-12537,-22266,-28409
-13305,-22266,-28409
-12281,-22522,-28153
-12793,-23290,-28409
-12025,-23290,-28665
-12025,-23290,-28665
-12025,-22522,-28921
-13561,-22522,-28409
-13305,-23546,-28153
-13305,-24058,-27385
-12281,-23546,-27385
-12537,-22778,-27385
-11257,-21498,-27385
-12025,-21498,-27385
-11513,-21498,-27385
-11769,-19962,-27385
-11001,-19450,-27385
-11257,-17146,-28409
-10745,-17146,-29689
-10233,-17914,-30201
-9977,-19194,-30457
-9977,-19706,-30201
-10233,-19962,-30201
-10233,-19962,-30969
-10745,-19706,-30713
-12025,-19962,-29945
-13049,-22778,-28921
-12793,-24314,-28665
-12793,-25082,-28921
-12281,-25082,-29945
-13049,-25082,-29945
-12793,-24826,-29433
-13561,-25338,-28665
-12281,-25338,-29177
-13561,-25338,-29177
-13561,-25338,-28153
-13817,-26618,-25593
-13305,-30714,-22009
-13561,30982,-19449
-12537,31238,-19449
-12537,-32506,-20473
-10233,-32250,-21241
-5625,-10746,28935
-3065,6150,16392
-3065,16902,8456
-4089,17414,6152
-7417,13574,6152
-12793,6406,5128
-15609,-506,5127
-15865,-5882,9223
-15609,-11514,12551
-17401,-15866,17927
-17401,-19194,23047
-17145,-21498,25607
-13561,-22266,27143
-13561,-22778,29959
-13305,-24058,32263
-15353,-25594,-30969
-13305,-26106,-30201
-13305,-26874,-28921
-13305,-27130,-28153
-14329,-27386,-27641
-12793,-27898,-27385
-12793,-28154,-27129
-12537,-28410,-27129
-14841,-28410,-26873
-14073,-28666,-26873
-13561,-28666,-27385
-13817,-28666,-27129
-13561,-29178,-27385
-13561,-29434,-27385
-14073,-29434,-26105
-13817,-29178,-25849
-14073,-29690,-26361
-14329,-29434,-26873
-14329,-29946,-26617
-14073,-29946,-26617
-13561,-29946,-26361
-13817,-29946,-26361
-13561,-29690,-26361
-14329,-30458,-26617
-13561,-30714,-26617
-14329,-30970,-26361
-14073,-30970,-26873
-14585,-31482,-26617
-13305,-31738,-26361
-14329,-31738,-26617
-14073,-31994,-26873
-14841,-32506,-26873
-13561,32518,-27129
-14073,32518,-27385
-14073,32518,-27385
-14329,-32762,-27129
-13817,32006,-26873
-14073,31750,-26873
-13817,32262,-26873
-13817,32006,-27129
-13817,31750,-26873
-13817,32006,-27129
-14073,32518,-27129
-14073,32518,-27385
-13817,-32762,-27385
-14073,-31994,-27129
-14841,-31482,-27385
-13305,-31226,-27897
-13049,-30202,-27897
-13305,-28666,-27897
-14585,-28410,-27897
-13561,-27898,-28409
-13561,-27130,-28409
-13049,-25850,-28921
-13305,-25338,-28921
-12793,-24570,-28921
-13561,-24826,-28665
-11769,-24314,-28665
-12793,-24314,-28409
-13049,-24314,-28409
-12793,-23802,-28665
-12025,-23546,-28409
-12025,-23546,-28409
-12025,-23802,-28409
-12281,-23802,-28409
-12025,-23546,-28409
-12537,-23546,-28153
-12281,-23546,-28409
-12281,-23290,-28153
-12281,-23290,-27897
-12025,-23290,-27897
-12281,-23290,-28409
-12025,-23034,-28409
-12537,-23034,-28153
-12537,-23034,-28409
-13049,-22778,-27641
-12025,-23034,-27385
-12537,-23034,-27385
-11513,-22010,-27641
-13305,-22010,-27641
-12793,-22266,-27641
-12537,-22266,-27641
-11001,-22266,-27641
-12025,-22522,-27385
-12025,-22522,-27641
-12025,-21754,-27129
-11257,-21754,-27129
-12281,-22010,-27385
-11769,-22010,-27385
-11769,-22266,-27129
-11769,-22522,-26617
-11769,-22522,-26617
-11769,-22266,-26873
-11769,-22522,-27129
-12025,-22522,-27385
-11769,-22522,-27129
-12281,-22778,-26361
-11257,-23034,-26617
-11513,-23290,-26873
-11513,-22522,-26873
-11513,-22522,-26617
-11257,-22522,-26617
-12537,-23290,-26873
-11257,-23290,-27129
-11257,-23290,-27129
-11001,-22522,-27385
-12537,-22522,-27385
-11513,-22778,-27641
-11513,-23546,-27897
-11769,-23290,-27897
-11769,-23290,-27897
-11513,-23034,-27641
-11513,-23034,-27641
-11001,-23290,-27641
-11769,-23290,-27385
-12025,-23034,-27385
-11769,-23034,-27385
-11257,-23034,-27641
-11769,-22778,-27385
-12025,-22778,-26617
-11513,-22266,-26617
-11513,-21754,-26105
-11001,-20986,-26361
-11001,-20218,-26617
-10489,-18938,-26617
-10745,-18170,-27385
-8953,-17658,-28921
-9721,-17658,-29433
-9721,-18682,-29689
-10489,-19706,-29945
-9465,-19450,-30457
-9721,-19706,-30201
-8953,-19450,-29689
-10489,-19706,-28409
-11001,-20730,-28409
-11769,-23290,-27641
-11513,-23034,-27641
-11769,-23546,-27641
-11001,-23546,-27641
-12281,-24058,-28409
-12281,-24314,-28409
-11769,-24058,-27641
-11001,-24058,-27385
-11001,-24058,-26873
-12025,-27130,-23545
-13305,-31482,-19193
-13305,31238,-17401
-10489,31494,-17913
-9209,-30458,-20473
-7673,-21242,-28409
-5113,-5626,24327
-249,11270,10504
-249,20230,1800
-2809,20742,8
-6393,16902,-3064
-8698,8966,-5880
-11514,1798,-3576
-12794,-3578,2055
-16121,-9210,10759
-16633,-11002,13831
-14585,-16890,21255
-13305,-18426,23559
-13305,-19194,28167
-12025,-20218,31495
-12025,-22778,-32249
-12025,-24314,-30969
-12793,-25338,-28665
-12025,-25338,-27385
-12025,-25594,-27129
-12537,-26618,-27385
-13305,-26874,-27385
-13561,-26618,-26105
-12793,-26874,-25849
-11769,-27386,-25849
-11769,-27386,-25849
-13049,-27642,-25593
-13049,-27386,-25337
-13049,-27386,-24825
-12025,-27386,-24569
-12281,-28154,-24313
-12537,-27898,-24313
-13561,-27898,-24313
-12281,-27898,-24569
-12281,-28666,-24313
-13817,-29178,-24313
-14585,-28922,-24313
-13561,-28922,-24313
-13561,-30202,-24313
-13561,-30458,-24057
-14841,-30202,-24057
-14329,-29946,-24057
-14073,-29946,-24057
-13049,-30714,-24313
-14329,-30970,-24057
-14073,-30970,-24313
-14329,-30970,-24313
-14585,-30970,-24313
-13817,-30970,-24057
-13817,-31994,-24057
-14073,-31994,-24057
-14329,-31738,-24313
-14585,-31482,-24569
-14841,-31994,-24569
-14841,-32250,-24569
-14585,-32506,-24569
-13817,-32506,-24569
-14585,-32506,-24825
-14329,-31994,-25593
-14585,-32250,-25593
-15097,-32250,-25593
-15097,-31994,-25081
-14841,-31482,-25081
-14329,-30202,-25849
-12537,-28666,-26617
-13817,-28922,-26361
-14073,-27898,-26361
-14073,-26618,-26105
-12537,-25338,-26361
-12793,-25594,-26617
-12537,-25338,-26873
-13561,-24570,-26873
-13049,-23546,-27129
-12281,-23290,-26873
-11513,-23290,-26617
-12281,-23034,-26617
-13049,-22522,-26617
-12537,-22522,-26873
-12281,-22778,-26873
-11513,-22522,-27129
-11513,-22522,-26617
-11769,-22266,-26873
-13049,-22522,-27385
-12025,-22266,-27385
-11769,-22010,-27129
-13049,-21754,-26617
-13049,-22010,-26617
-13305,-22522,-27385
-13049,-22522,-27385
-11257,-21754,-27641
-12025,-22010,-26617
-12025,-21754,-26617
-13305,-21754,-27385
-12025,-21498,-27897
-12025,-20986,-27129
-11769,-21242,-27129
-13305,-20986,-26873
-13049,-21242,-26873
-12537,-21242,-27129
-11513,-20986,-26873
-12281,-21242,-27129
-12793,-21242,-26617
-12537,-21242,-26617
-12793,-21242,-26873
-12537,-21498,-26617
-11769,-21498,-26617
-11513,-21498,-26873
-11513,-21498,-26617
-10745,-21242,-26361
-12025,-21498,-26617
-13561,-21498,-26873
-13049,-21498,-26873
-12281,-21754,-26873
-12281,-22266,-26873
-11001,-22522,-27385
-12025,-22522,-27129
-12025,-21754,-27129
-13049,-22010,-27129
-11769,-22010,-27129
-11769,-21754,-27129
-11769,-21754,-27129
-12281,-21754,-27385
-11769,-22010,-27641
-11513,-22010,-27897
-10745,-22266,-27641
-11257,-22266,-27641
-11769,-22266,-27897
-12025,-22010,-27641
-12025,-22266,-27641
-12025,-22266,-27385
-11513,-22010,-27385
-11513,-22266,-27897
-11513,-22010,-27897
-11513,-21754,-27385
-11769,-21498,-26361
-13305,-20730,-26105
-12281,-20730,-26617
-10489,-20218,-27385
-10489,-19450,-27385
-9977,-17402,-27641
-10489,-16634,-28153
-9721,-16378,-29433
-9977,-16890,-29689
-9721,-17402,-30457
-9721,-18170,-30201
-9721,-18426,-30201
-10745,-18426,-30201
-9721,-18170,-30457
-10489,-18170,-29689
-10745,-19706,-29177
-11769,-20986,-28153
-11769,-22266,-28153
-12025,-22778,-27897
-12025,-22522,-28665
-12025,-22522,-28665
-12025,-22778,-28409
-12025,-22522,-28409
-12025,-22266,-28409
-11769,-23546,-26105
-13049,-27386,-22521
-14841,-28666,-21241
-12793,32518,-18169
-11513,-32506,-19193
-9977,-29434,-22521
-4857,-18682,-31993
-3065,-1018,20231
-1017,14598,7432
-1017,20742,2056
-1785,20998,-248
-7418,16134,-4856
-11002,7942,-6136
-13562,262,-3064
-13562,-4090,3591
-14585,-8698,11527
-14841,-13050,17159
-15353,-16890,21255
-14073,-17914,24327
-12793,-18682,28167
-12025,-20730,30983
-12281,-23034,-31737
-12281,-24314,-30201
-12281,-24314,-29689
-12281,-24314,-28665
-12281,-25850,-28665
-12793,-26618,-27641
-15097,-26362,-27641
-13049,-26106,-27129
-12281,-26362,-26873
-12793,-27130,-26361
-12793,-27130,-26361
-13561,-26874,-25593
-13305,-26874,-25849
-14073,-27642,-25081
-13305,-27386,-24825
-14585,-27642,-24825
-14073,-27898,-25337
-14329,-28410,-25081
-12793,-28154,-25337
-13305,-28410,-25081
-13561,-27898,-24825
-15097,-27898,-24825
-14329,-28410,-24569
-14073,-28666,-24313
-13817,-29178,-24569
-14073,-29946,-24825
-13561,-29690,-24825
-13561,-29434,-24569
-13561,-29434,-24825
-13561,-29178,-24569
-14073,-30714,-25081
-15865,-31226,-25337
-15097,-30970,-25337
-14329,-30202,-25337
-14329,-30458,-24825
-13049,-30970,-24825
-13305,-31994,-24825
-13305,-31994,-24825
-14841,-31738,-24825
-14329,-31482,-25081
-14585,-31738,-25337
-13817,-31738,-26105
-14841,-31226,-25849
-14073,-30458,-25849
-14329,-30714,-25849
-13305,-30970,-25849
-14329,-30458,-25593
-14329,-29178,-26361
-14073,-29178,-26617
-13305,-29178,-26873
-13561,-28410,-26873
-13305,-26874,-26617
-13561,-25082,-26617
-12537,-25082,-26617
-11769,-25082,-27129
-12281,-24826,-26873
-15353,-23802,-26873
-13561,-23290,-26873
-13305,-23546,-27129
-12537,-23546,-27129
-12281,-22522,-26873
-12537,-22010,-26617
-12025,-22010,-26361
-12537,-22266,-26105
-11769,-21754,-27129
-12793,-22010,-27129
-12281,-22010,-26873
-12793,-21754,-26617
-11513,-21754,-26873
-12025,-22010,-26873
-12025,-21754,-27641
-12537,-21754,-27385
-11513,-20986,-27385
-12025,-20986,-27385
-12025,-21242,-26873
-12537,-21498,-26617
-11513,-20986,-26617
-11513,-20474,-27129
-11513,-20474,-27129
-11257,-20730,-27129
-11513,-20474,-26617
-14585,-20730,-26105
-12793,-20986,-26105
-12025,-20474,-26617
-11769,-20474,-26873
-10745,-20474,-26617
-11001,-20730,-25849
-11257,-20474,-26105
-12537,-20474,-26105
-12025,-20730,-26361
-12025,-20730,-26105
-12025,-20474,-26617
-12793,-20986,-26361
-11769,-21242,-26105
-12537,-21754,-26361
-11513,-21242,-26361
-12025,-20730,-26361
-12025,-20474,-26873
-12537,-20730,-26873
-11513,-20986,-27129
-12025,-20986,-26873
-12281,-20986,-27129
-12281,-21242,-27385
-11513,-21242,-27129
-11513,-21242,-26873
-11513,-21242,-27129
-14329,-20986,-27129
-12793,-21242,-27385
-13049,-21754,-28153
-12281,-22010,-28153
-11513,-22010,-28153
-12281,-21754,-27641
-12281,-21498,-27641
-12793,-22266,-27385
-11769,-22010,-27897
-12281,-21498,-28153
-12281,-21242,-27897
-13049,-21498,-27129
-11513,-20986,-26617
-11769,-20730,-26361
-11257,-20218,-26617
-12025,-19706,-26873
-11001,-18682,-27385
-11001,-17658,-27385
-9977,-16378,-28409
-10233,-15866,-29433
-9721,-15866,-29689
-9977,-16890,-30201
-9977,-17658,-30457
-10233,-18170,-30457
-10489,-18170,-30713
-13305,-18170,-30201
-11513,-18170,-29945
-11769,-19194,-29433
-11513,-20218,-28921
-11513,-22266,-28409
-12025,-22522,-28153
-12281,-22266,-29177
-12793,-22778,-29177
-12281,-22522,-29177
-13305,-22778,-28665
-12281,-22522,-28921
-12793,-22522,-28665
-12537,-23290,-26617
-13561,-27642,-22521
-12281,-31738,-18681
-12537,32518,-18425
-11513,-31738,-20473
-9977,-26618,-24825
-5113,-13818,30727
-2041,4358,16392
519,18695,4360
-1529,22278,776
-3833,20742,-504
-8186,15366,-4088
-10746,7174,-5112
-15098,4102,-4344
-15610,-4858,5895
-15609,-8954,13831
-15609,-13050,18951
-15353,-16634,21767
-13817,-17402,25095
-12537,-17914,28423
-12793,-19962,30727
-12537,-22266,-32505
-12537,-23546,-30713
-11513,-23290,-29433
-12793,-23290,-28921
-12537,-24058,-28921
-12281,-25082,-27897
-11513,-25082,-27641
-12793,-25082,-27129
-12793,-25338,-27129
-13817,-25850,-26617
-12537,-25850,-26617
-12793,-25850,-26361
-12281,-25850,-26361
-13049,-25594,-26361
-13049,-26362,-26361
-13049,-26874,-25593
-12793,-26874,-25081
-16377,-26618,-25081
-14073,-27642,-25337
-13817,-27642,-25337
-13305,-27898,-25337
-12793,-27386,-25337
-13305,-27130,-25337
-13305,-27386,-25337
-13817,-27642,-25081
-13817,-27642,-25337
-13817,-28410,-25337
-13305,-28666,-25337
-13305,-28666,-25337
-12281,-28410,-25337
-13049,-28666,-25337
-12793,-28666,-25337
-14073,-29178,-25081
-14073,-28922,-26105
-14073,-28922,-26105
-12793,-28922,-25849
-13561,-29434,-24825
-13049,-29434,-24569
-13561,-29690,-25081
-12793,-29434,-25849
-13817,-29178,-25849
-13817,-29946,-26105
-16889,-30458,-25849
-13561,-30202,-26105
-13817,-28922,-25849
-14073,-28410,-26105
-13817,-28666,-26873
-13049,-28154,-26873
-13305,-26874,-27129
-13305,-26362,-27129
-13049,-25594,-27385
-13049,-25850,-27129
-12537,-24314,-27129
-12793,-23034,-27385
-12025,-22778,-27641
-12281,-22522,-27897
-12025,-22010,-27641
-12025,-21754,-27385
-12025,-20730,-27385
-12537,-20986,-27641
-11257,-20986,-27641
-12281,-20730,-27129
-12281,-20730,-27129
-12537,-20730,-27129
-11769,-20474,-27641
-12025,-20474,-27641
-12025,-20474,-27641
-15609,-20730,-27129
-11769,-20474,-27385
-12281,-20218,-27385
-12025,-19962,-27129
-12281,-19962,-27129
-11513,-19706,-27385
-11257,-19706,-27129
-12281,-19706,-27385
-12537,-19962,-27641
-12537,-19962,-27641
-12281,-19450,-27897
-12281,-19706,-27641
-12537,-19450,-27385
-12793,-19194,-27129
-12025,-19194,-27385
-12025,-19194,-27129
-12025,-18938,-27129
-13049,-19450,-27129
-11769,-19706,-27897
-12281,-20218,-27897
-11769,-20218,-27385
-12537,-20218,-26617
-12537,-19450,-26873
-13049,-19450,-27385
-12025,-19194,-27641
-15865,-19962,-27385
-12793,-20474,-27129
-13561,-20218,-26361
-12537,-20474,-26361
-12537,-20474,-26617
-12281,-20730,-27129
-13049,-20474,-26873
-12793,-20218,-26873
-12793,-20474,-27129
-12537,-21242,-26873
-12537,-21242,-26873
-12281,-21242,-27385
-12281,-20730,-27641
-12281,-20730,-27641
-11513,-20730,-27897
-12025,-21242,-27385
-12537,-20986,-27641
-13305,-21242,-27641
-12537,-21498,-27385
-12537,-21754,-27129
-11769,-21242,-27641
-12793,-20986,-27641
-12793,-20986,-27129
-13049,-21498,-26873
-12537,-21498,-26873
-16633,-20986,-26105
-13049,-20218,-26361
-13817,-20474,-26617
-12537,-20218,-27129
-12025,-19194,-27385
-11257,-17146,-27385
-11257,-16634,-27641
-11001,-16378,-29177
-11257,-16378,-30201
-11257,-16890,-30969
-11001,-17914,-30713
-11257,-18426,-30713
-11257,-17658,-30457
-11001,-17146,-30713
-11257,-17658,-30457
-12537,-19450,-29689
-12537,-21754,-29177
-13049,-22522,-28665
-13049,-22266,-28409
-13049,-22522,-28665
-12281,-22266,-29433
-13049,-23290,-29177
-13305,-23546,-29177
-14073,-23546,-29433
-12793,-23546,-28409
-17145,-24314,-27385
-14329,-28666,-23033
-14841,-32250,-20217
-13049,32006,-18937
-12537,-32762,-20217
-10489,-27386,-26361
-7161,-13818,28679
-4089,4102,15624
-2553,16134,4616
-2809,19974,264
-5881,18950,-2040
-8954,12550,-5624
-12282,3590,-5112
-15098,-2554,-1273
-16122,-6906,6663
-17401,-11002,14599
-17913,-16122,19207
-16889,-19962,22023
-15097,-19706,25607
-14841,-19962,28423
-13049,-20986,30727
-13561,-23802,-32505
-13561,-25850,-30457
-15097,-26362,-28921
-14585,-26106,-29177
-18169,-26362,-29177
-13817,-26874,-28665
-15097,-26874,-28153
-14329,-26618,-27641
-14329,-27642,-27129
-13817,-28154,-27129
-14585,-28154,-27129
-14585,-27642,-27385
-14585,-27898,-26617
-14329,-28154,-25849
-15353,-28922,-25849
-14585,-29178,-26361
-14329,-28922,-26105
-14073,-28922,-26105
-14329,-29178,-26105
-15097,-29434,-25081
-15609,-29946,-25081
-15353,-29946,-25337
-15097,-29434,-25849
-15353,-29946,-26105
-14329,-29946,-26361
-14585,-30714,-26361
-14585,-30458,-26361
-15097,-30202,-26617
-14841,-30714,-26361
-19449,-31226,-25337
-15353,-31738,-25849
-15865,-31738,-26105
-14585,-31482,-26361
-14841,-31482,-26361
-14585,-31738,-26361
-15353,-31994,-26873
-15353,-32506,-27385
-15865,-32762,-27129
-15865,-32762,-26873
-15865,-32506,-26873
-15353,-32762,-26873
-15097,32262,-26873
-15097,32518,-26873
-15609,32262,-26873
-15865,32518,-27129
-15865,-32250,-27385
-16377,-32506,-27641
-16121,-32250,-27641
-16121,-31226,-27641
-15097,-29690,-28153
-15097,-29178,-28153
-14841,-28922,-27897
-15353,-27898,-27641
-14585,-26874,-28153
-18681,-26874,-28153
-14073,-25338,-28665
-14841,-25594,-28921
-13817,-24826,-28665
-14329,-24314,-28665
-14585,-24058,-28921
-14329,-24058,-28665
-13817,-23802,-28665
-14073,-24058,-28665
-13305,-24058,-28665
-14329,-24058,-28665
-13817,-23802,-28921
-13561,-23546,-28665
-13305,-23546,-28921
-13305,-23290,-28921
-13049,-23290,-28665
-13305,-23290,-28921
-13817,-23034,-28665
-14073,-23290,-28665
-14073,-23546,-28665
-12793,-23546,-28665
-12537,-23034,-28409
-13049,-22522,-28409
-14585,-22778,-28409
-13561,-22522,-28921
-16889,-22522,-27897
-12281,-22522,-27897
-13817,-22522,-28153
-13305,-22010,-28153
-13049,-22010,-28153
-11769,-22266,-27897
-13305,-22522,-27641
-13817,-22010,-27385
-13561,-22010,-27897
-12537,-22266,-27897
-13305,-22266,-27897
-12537,-21754,-27897
-12793,-21242,-27897
-12793,-21754,-27641
-13305,-22778,-27641
-13049,-22778,-27897
-13049,-22522,-28153
-13049,-22010,-27897
-12793,-22010,-27641
-12793,-22010,-27385
-11769,-21754,-28409
-12537,-22266,-28409
-13049,-22522,-28409
-13305,-22778,-27897
-12793,-22778,-28153
-16377,-22778,-28153
-12537,-22778,-27897
-13049,-22522,-27897
-12537,-22266,-28409
-12281,-23034,-28153
-11769,-23290,-28153
-13561,-23546,-28153
-13561,-22522,-28153
-13305,-22778,-27897
-11257,-22778,-27897
-11769,-22778,-27897
-12281,-22778,-28153
-12281,-22522,-27129
-12025,-22522,-26105
-12025,-22266,-26105
-11769,-20986,-26361
-13049,-20474,-26617
-13049,-20474,-26873
-11769,-18938,-27385
-11001,-17658,-28153
-10233,-17402,-29689
-10745,-17658,-29945
-10745,-18682,-30201
-11257,-19706,-29945
-11257,-19706,-29945
-15609,-19194,-30201
-11513,-18682,-30457
-12025,-19450,-29433
-11513,-20986,-28921
-12537,-23034,-28409
-12025,-23290,-28409
-12537,-23546,-28153
-12281,-23546,-28665
-12025,-23546,-29433
-11257,-23290,-29689
-12281,-23546,-28409
-12281,-23290,-28409
-12537,-23290,-27641
-12537,-25594,-25081
-13049,-29690,-20985
-12025,-31738,-18425
-12025,-32250,-18681
-10745,-30714,-20473
-8185,-24314,-26105
-5113,-9466,26887
-2297,7174,12040
-2553,16390,1800
-3321,17926,-1272
-6138,15622,-5112
-9210,8710,-8184
-14842,4614,-8440
-14330,-5626,-249
-15610,-9978,8967
-14073,-12794,15367
-14329,-16634,19719
-13817,-19194,22023
-13561,-18938,25863
-12025,-19706,29447
-12793,-22522,31495
-12537,-25338,-32249
-13561,-26106,-29433
-13049,-25594,-28665
-13049,-25594,-28153
-13305,-27130,-28153
-13049,-27898,-27129
-13049,-27642,-26873
-14329,-27898,-26617
-14329,-27898,-26617
-13817,-28410,-26361
-13049,-28666,-26105
-12793,-28410,-25593
-12537,-28154,-25593
-12793,-28154,-25337
-14073,-28922,-25337
-13817,-29178,-25593
-17401,-29178,-24825
-13817,-29178,-24569
-14073,-29178,-24569
-13817,-29178,-25081
-13817,-29434,-24825
-13049,-29690,-24825
-13817,-30202,-24825
-14073,-29946,-25081
-13817,-29946,-25081
-13305,-29946,-24825
-13817,-30458,-25081
-13305,-30714,-25081
-14073,-30714,-25337
-13305,-30970,-25081
-13561,-31226,-24569
-13305,-31994,-24569
-14329,-31994,-24569
-14329,-31994,-24825
-14329,-31994,-24825
-14329,-32250,-24313
-14073,-32250,-24569
-13817,-32250,-24313
-13817,-32506,-24569
-14073,-32762,-24313
-14329,-32506,-24313
-18937,-32506,-24569
-14329,-32762,-24825
-14329,32518,-25081
-13817,-31482,-24825
-14329,-31226,-24825
-14073,-30970,-25337
-14073,-31226,-25593
-13817,-30202,-25593
-14073,-29690,-25593
-13817,-28410,-25593
-14585,-28154,-25593
-13049,-27642,-25593
-13305,-26874,-25593
-13049,-26362,-26105
-14329,-25850,-26105
-14073,-26106,-25849
-13817,-25338,-25849
-12793,-24570,-26361
-13305,-24058,-26361
-13049,-24058,-26361
-12793,-23802,-26617
-12025,-23802,-26873
-12025,-23802,-26873
-13561,-23802,-26873
-13561,-23546,-26873
-16377,-23290,-26105
-12281,-23034,-26361
-13049,-23546,-26361
-13305,-23802,-26873
-13305,-24058,-26361
-11513,-22778,-26105
-12025,-22778,-26361
-12537,-23034,-26873
-13561,-23802,-27129
-12025,-23546,-26617
-11769,-23034,-25849
-11513,-22778,-25849
-12537,-23034,-25849
-12025,-22778,-25849
-12025,-22522,-26105
-12281,-23034,-26105
-13305,-23546,-25849
-13561,-23546,-25849
-13049,-23034,-25593
-11513,-22266,-25593
-12025,-22010,-25849
-11769,-22522,-26105
-12793,-23034,-25593
-12793,-22778,-25593
-12281,-22778,-26105
-16121,-23034,-25849
-12537,-23034,-25849
-12793,-22778,-26105
-12281,-22778,-26361
-12025,-23290,-26105
-12281,-23290,-26105
-12537,-23546,-26105
-12025,-23290,-26617
-12025,-23034,-26617
-11513,-23290,-26361
-12025,-23546,-25849
-12025,-23546,-25849
-12537,-23290,-26361
-12281,-23290,-26617
-12793,-23290,-26617
-12025,-23034,-26873
-12793,-23290,-26873
-12537,-23290,-26617
-13049,-23546,-26617
-12281,-23290,-26617
-12281,-23034,-26873
-12025,-23546,-26873
-12281,-23802,-26873
-12281,-23546,-27129
-12793,-23546,-26873
-16633,-23290,-25849
-12537,-22266,-25849
-12793,-22266,-25849
-12281,-22010,-26105
-12025,-22010,-25081
-11769,-20986,-25081
-11513,-19962,-25593
-11257,-18938,-27641
-11513,-18682,-28921
-10489,-18426,-29177
-11001,-19194,-29177
-9977,-19194,-29433
-10745,-20474,-29689
-10489,-20474,-29433
-12025,-20218,-29177
-11257,-19706,-29177
-12281,-22010,-28409
-12281,-23802,-28409
-13817,-24570,-27897
-12793,-24826,-27897
-12793,-24314,-27897
-12281,-24314,-27897
-13049,-24314,-28153
-13305,-24570,-28665
-13305,-25338,-28153
-15865,-25338,-26873
-13561,-26874,-23289
-13561,-29690,-20473
-13049,-32250,-18681
-12537,-32506,-18169
-11001,-30202,-20217
-9209,-23290,-29177
-6393,-9722,20999
-4345,5638,6664
-3065,15366,-248
-5882,15622,-3320
-7162,13574,-10232
-11002,5382,-12280
-12538,-2810,-7673
-15354,-7930,1287
-15097,-10490,10247
-16121,-13818,16135
-15097,-15610,19719
-14841,-17658,23559
-12793,-19194,26631
-12537,-21498,30215
-12281,-23546,-32249
-13817,-25594,-30201
-13561,-25850,-28665
-13561,-25594,-28665
-16633,-25338,-27641
-13049,-26874,-27129
-13305,-27642,-27129
-12793,-27386,-27129
-12537,-27386,-26617
-12537,-27642,-26361
-13049,-28410,-25849
-13305,-28410,-25849
-13817,-28666,-25337
-13305,-28410,-25337
-13561,-28922,-25081
-13049,-28922,-25081
-13305,-28922,-25337
-12537,-28922,-25337
-13305,-29946,-24569
-13049,-30458,-24313
-13817,-30202,-24313
-13049,-30202,-24569
-14073,-30202,-24057
-13049,-30202,-23801
-12793,-29946,-23545
-12537,-30714,-24057
-13817,-31482,-24057
-13561,-31226,-23801
-13561,-30970,-23289
-16377,-31738,-23033
-13817,-31994,-23801
-13817,-32250,-23545
-12793,-32250,-23289
-12537,-31994,-23289
-13305,-32762,-23289
-14073,32006,-22777
-13817,32262,-22265
-13561,32518,-22777
-13561,32518,-22777
-14073,32518,-22521
-13561,32518,-22521
-13561,32262,-21497
-13561,32262,-21497
-14329,32518,-21497
-13305,-32250,-22265
-13305,-32250,-22265
-13561,-32506,-22009
-15609,-31738,-21497
-14073,-29690,-21753
-13817,-29690,-22009
-12793,-29178,-22521
-13561,-28922,-22777
-13817,-27386,-22521
-13561,-26618,-23545
-15097,-26362,-23545
-12537,-26362,-24313
-13049,-25850,-24313
-13049,-24570,-24313
-12281,-24570,-25337
-12281,-24058,-25337
-12281,-24314,-25593
-12281,-23546,-25849
-12281,-23546,-25849
-11769,-23546,-25849
-12281,-24058,-25849
-12281,-24058,-25849
-12281,-23546,-26105
-12025,-22778,-26105
-12537,-22778,-26105
-12025,-23034,-26105
-12537,-24058,-26105
-12281,-23546,-26361
-13049,-23802,-26105
-11769,-23546,-26361
-12025,-23802,-25849
-12025,-23546,-25849
-13561,-24058,-25849
-13049,-24314,-25849
-13049,-24314,-25593
-14585,-24314,-25593
-13049,-24570,-25593
-13049,-24570,-25849
-12793,-24058,-25593
-12025,-24058,-25337
-12025,-23802,-25337
-12025,-23546,-25849
-12025,-23290,-26105
-11769,-23034,-26105
-11769,-23034,-25593
-12025,-23802,-24825
-11001,-23546,-25593
-11257,-23546,-25849
-11001,-23034,-26105
-12281,-22778,-26105
-12281,-23034,-26105
-12537,-23546,-26361
-11001,-23546,-26617
-12281,-23546,-26617
-12281,-23290,-26873
-12537,-23546,-26361
-11257,-23290,-26105
-11513,-23546,-26361
-12537,-23546,-26873
-13305,-24314,-26617
-14073,-24058,-26617
-11769,-24058,-26617
-11769,-24314,-26617
-12025,-23802,-26873
-11769,-23290,-26873
-12025,-23802,-26873
-12025,-24058,-27129
-12793,-24314,-26873
-12793,-24570,-27129
-12025,-24058,-27385
-11257,-23546,-26617
-11257,-23034,-26361
-11769,-23034,-26105
-11769,-22522,-25593
-11769,-22266,-25081
-11257,-21754,-25337
-11513,-20474,-25849
-10745,-19450,-26873
-11257,-19194,-28153
-9721,-17914,-29689
-9977,-17914,-29433
-9465,-18682,-30457
-10233,-20474,-30201
-9977,-20474,-29177
-11257,-20218,-29177
-13305,-19706,-29177
-11769,-20218,-29177
-10745,-22522,-28665
-11001,-23290,-27385
-11513,-23290,-27641
-12025,-23546,-28921
-11513,-23546,-29177
-11257,-24314,-28921
-11001,-24570,-28409
-11513,-24058,-28153
-11257,-24058,-28153
-11257,-24314,-27385
-11513,-26362,-24057
-11513,-29946,-20217
-12025,-32250,-18937
-10489,-31482,-20217
-8697,-27898,-23801
-5113,-16378,30471
-3833,-1530,15623
-2297,10502,3080
-3065,15622,-1784
-4602,15366,-6136
-8954,10502,-11256
-11514,2310,-11256
-13818,-5114,-4857
-14586,-5882,-1785
-14842,-11002,13063
-14841,-13818,17159
-13817,-16378,20231
-11001,-17402,24583
-11001,-18938,28935
-11257,-21242,31239
-12025,-23546,-32249
-11257,-24314,-30457
-11257,-24058,-29177
-11257,-24826,-28921
-11513,-26106,-28921
-11513,-26874,-28409
-11513,-26362,-27129
-11513,-26618,-26361
-11769,-26618,-27129
-11769,-27130,-26873
-11513,-26874,-26617
-12281,-26874,-26361
-11513,-27130,-26361
-11769,-26874,-26105
-10745,-26618,-26105
-11257,-27130,-25337
-11257,-27898,-25337
-12537,-28410,-25081
-13049,-28154,-25081
-12537,-28410,-25593
-12025,-28666,-25593
-12025,-28922,-25593
-11513,-28922,-25593
-12025,-29178,-24825
-11513,-29178,-24825
-12025,-29690,-24825
-12281,-30202,-25081
-12537,-29946,-25593
-12025,-29946,-25081
-11769,-30202,-25081
-12025,-30714,-25081
-12025,-30714,-24825
-11769,-30970,-24057
-11769,-31226,-23801
-11769,-31226,-24057
-11769,-31226,-24313
-12281,-31482,-24313
-11513,-31738,-24057
-11769,-31738,-23545
-11001,-30202,-23801
-11513,-30458,-23289
-11257,-30458,-23545
-12025,-30714,-23545
-12281,-30458,-23033
-11769,-30202,-22777
-11257,-29434,-23545
-11257,-28666,-24313
-10745,-27898,-24313
-11513,-27898,-23545
-11513,-26874,-23545
-11257,-25594,-24569
-10489,-24314,-25593
-10745,-24314,-25593
-10489,-23546,-25337
-10233,-22522,-25593
-9977,-22010,-25593
-9977,-22266,-26105
-10745,-22010,-26105
-10745,-21242,-26361
-10489,-21242,-26873
-9721,-21242,-27129
-9721,-20986,-27385
-9209,-20730,-27129
-9977,-20986,-26873
-9721,-20730,-27129
-9721,-20730,-27385
-9465,-20730,-27897
-10745,-20986,-27897
-10745,-20474,-27385
-10489,-20474,-27129
-9209,-20474,-27641
-9721,-20986,-28409
-9721,-20730,-28409
-9977,-20474,-27129
-9209,-20474,-27129
-9977,-20730,-27385
-10233,-20474,-28153
-11001,-20730,-28153
-10489,-21242,-27897
-9977,-21242,-27641
-10233,-20986,-27897
-10233,-21242,-28153
-10745,-21242,-27897
-10489,-20986,-27897
-10489,-21242,-27897
-10233,-21754,-27897
-10233,-22266,-27897
-9977,-21242,-28153
-9977,-21242,-28153
-9209,-21242,-27897
-9721,-20730,-27897
-10233,-20474,-28153
-11001,-21498,-27897
-10745,-21498,-27897
-10745,-21498,-28409
-9721,-20986,-28921
-9977,-21242,-28665
-9977,-21242,-28665
-11001,-21242,-28409
-10745,-21498,-28409
-10745,-21498,-28153
-10233,-21242,-29177
-11001,-21498,-29177
-10745,-21498,-29177
-10489,-20986,-29177
-9721,-20730,-28921
-9721,-20730,-28921
-10233,-20986,-29177
-10233,-21242,-29177
-10489,-21498,-28921
-10489,-21498,-28409
-9721,-21242,-28409
-9465,-20730,-28665
-9977,-20986,-28409
-9977,-20730,-28409
-10233,-20730,-27385
-9977,-19706,-27385
-9977,-19706,-27129
-9721,-19706,-27385
-9465,-18682,-27897
-8441,-16378,-28153
-8441,-16122,-28665
-8441,-15866,-30969
-8697,-16122,-30969
-7929,-16378,-31737
-8441,-17658,-31993
-8697,-17658,-31993
-9721,-17658,-31993
-8697,-17402,-31481
-8953,-17914,-30713
-8953,-19450,-30457
-10489,-21242,-30201
-10489,-21754,-29689
-10233,-21754,-29433
-9465,-21498,-29433
-10233,-21754,-30201
-10233,-22010,-30457
-9465,-21754,-29945
-9721,-22266,-29433
-9721,-22010,-28153
-10233,-24058,-25593
-10233,-27898,-22777
-10233,-29946,-20473
-8697,-29690,-20217
-7417,-25338,-22777
-4345,-16122,-30713
-2553,-2042,21767
-1017,11014,7944
-1529,16902,520
-2809,16390,-3064
-7930,11270,-7416
-10234,3846,-7928
-12282,-2298,-3321
-12794,-6650,3335
-14073,-11002,11527
-14329,-13818,16903
-14073,-16122,20487
-11769,-16634,23047
-10489,-18170,26375
-9977,-20474,29447
-11001,-21498,32007
-11001,-22010,-31993
-10489,-22778,-30969
-10489,-23802,-29689
-10745,-24314,-29689
-10745,-24570,-29689
-10489,-24826,-28921
-10745,-25594,-28409
-9721,-25850,-28409
-11001,-26618,-28409
-10233,-26362,-28153
-9977,-26362,-27129
-9977,-26362,-27129
-11513,-26106,-27129
-10745,-26106,-27129
-11257,-27130,-27129
-11257,-27130,-26873
-12537,-26874,-26617
-11001,-27130,-26617
-11257,-27898,-26873
-11001,-28154,-26617
-12537,-28410,-26617
-12281,-28410,-26617
-11513,-28410,-26873
-10233,-28410,-27129
-11513,-28666,-26873
-11513,-28922,-26617
-11769,-28922,-26617
-11257,-29434,-26617
-10233,-29434,-26617
-10233,-29434,-26873
-11257,-29434,-26617
-11257,-29434,-26617
-8953,-29690,-26617
-9977,-30202,-26361
-10233,-29946,-26361
-11257,-29690,-26105
-10233,-29178,-26361
-9977,-28922,-26105
-9977,-28922,-26361
-11001,-29178,-26361
-10745,-28666,-26105
-10489,-28410,-25849
-9209,-27898,-26361
-10745,-27642,-26873
-9977,-26618,-27129
-10233,-26106,-27129
-9721,-25338,-26873
-10233,-25082,-27129
-10233,-23546,-27385
-10489,-23034,-27641
-9209,-22522,-27897
-9465,-22010,-27641
-9977,-21754,-27897
-10233,-20986,-27641
-9977,-20986,-27385
-10233,-21242,-27129
-10233,-21242,-27641
-8697,-20730,-27897
-10489,-20730,-28153
-9977,-20474,-27897
-10233,-20986,-27641
-10489,-20986,-27641
-11001,-20730,-27385
-9977,-19962,-28153
-10745,-20986,-28153
-10745,-20986,-27897
-12025,-21242,-27385
-10233,-21242,-27385
-9721,-20730,-27641
-9977,-20730,-27641
-11001,-20474,-27129
-10233,-20986,-27385
-10233,-21242,-27129
-9721,-20986,-27641
-10745,-20474,-27641
-10489,-20474,-27641
-10745,-20218,-27385
-10489,-20730,-28409
-10745,-20986,-28153
-10745,-20730,-27897
-11001,-20730,-28153
-11001,-21242,-27897
-8441,-21498,-27897
-10745,-21242,-27897
-10489,-21242,-27897
-10489,-21242,-27897
-10489,-20986,-27897
-10745,-20986,-27897
-10745,-20986,-28153
-11769,-20986,-27897
-11257,-20730,-28409
-11257,-21754,-28665
-10233,-22010,-28409
-11257,-21242,-28153
-11513,-20986,-28921
-11769,-21754,-28665
-10745,-21754,-28921
-11257,-21498,-28921
-10489,-21754,-28665
-11257,-21498,-28665
-10489,-21754,-28921
-10489,-21754,-28921
-10745,-21754,-29689
-11257,-21754,-29689
-11257,-21754,-29177
-11257,-22010,-28921
-11257,-22266,-29177
-8697,-22266,-29177
-11001,-22010,-29177
-10489,-21754,-29689
-10489,-21754,-29433
-11769,-21754,-29433
-11769,-21754,-28153
-11001,-21754,-28153
-11001,-21498,-27897
-10489,-20474,-27641
-11513,-19194,-27385
-9977,-19194,-27385
-9721,-18938,-27385
-9209,-16634,-28409
-9209,-15354,-29689
-8697,-15354,-30969
-9465,-16890,-31481
-8185,-18170,-32505
-8953,-18426,-32761
-8953,-17914,-32505
-9465,-17402,-31993
-9721,-17658,-31737
-10233,-18682,-31481
-10233,-20474,-30969
-10745,-22266,-29177
-11001,-22522,-29177
-7929,-22522,-30201
-10233,-22522,-31225
-9977,-22522,-30713
-10745,-22266,-29433
-11257,-22266,-29433
-11513,-23034,-29433
-10745,-22778,-28921
-11001,-25082,-26105
-11001,-29178,-21241
-12281,-30970,-19961
-9721,-29434,-20985
-7929,-25338,-22777
-4601,-14586,-30457
-3577,-250,21767
-1785,12038,8200
-2297,16134,1800
-3833,14086,264
-9465,8454,-2552
-11770,774,-3576
-14074,-4858,-505
-14330,-8698,5895
-15865,-12538,14087
-15865,-15610,18951
-15353,-18170,20999
-12793,-18682,24071
-9465,-18682,25607
-12281,-21498,30471
-12537,-22778,32007
-11769,-23546,-32249
-11257,-23802,-30201
-11513,-24570,-29177
-11769,-24826,-29177
-12025,-25338,-29177
-12025,-25850,-29177
-12793,-26106,-28665
-12537,-26106,-27641
-12537,-26362,-26873
-11769,-26106,-27129
-12537,-26362,-27129
-12281,-26618,-27129
-12537,-26874,-26361
-11001,-27130,-26105
-12281,-27386,-26105
-12281,-27386,-26361
-12537,-27642,-26105
-12281,-27642,-25849
-12793,-28154,-25593
-12537,-28410,-25593
-12793,-28666,-25849
-13049,-28922,-26105
-9721,-28666,-26361
-11769,-28666,-26361
-12281,-29178,-26361
-13305,-29434,-26361
-13817,-29178,-26617
-12793,-29434,-26617
-11769,-29434,-26873
-12281,-29690,-26873
-12281,-29690,-26873
-13305,-29690,-27129
-12025,-29690,-26873
-11257,-29690,-26617
-11001,-29434,-26617
-12025,-28922,-26617
-12025,-28922,-26361
-11769,-28666,-26617
-10745,-28410,-26617
-11769,-28410,-26617
-11257,-27642,-26617
-11257,-27642,-26361
-10745,-27130,-27129
-11001,-26362,-27129
-10745,-26106,-27385
-11257,-25850,-27385
-11001,-25082,-27385
-7417,-24058,-27897
-11001,-23802,-27897
-11257,-23546,-28153
-11769,-22778,-27641
-11769,-22010,-27641
-11513,-20986,-27641
-11513,-20986,-27385
-11769,-21242,-27641
-11257,-20474,-27641
-11513,-20474,-27641
-11769,-20730,-27897
-11769,-20730,-27641
-11001,-20986,-27385
-11513,-21754,-27897
-11513,-21754,-27897
-13049,-22010,-27641
-12281,-21754,-27641
-12281,-21754,-27641
-11257,-21754,-27641
-12281,-22522,-27641
-12025,-22266,-27897
-12537,-22266,-27641
-11769,-22266,-27385
-12537,-22010,-27641
-12281,-21754,-28409
-9209,-21754,-28665
-13049,-22010,-27641
-12025,-22010,-27385
-11513,-22266,-27641
-12281,-22522,-27641
-12281,-22010,-27641
-12537,-22010,-27641
-12537,-22266,-27641
-12793,-22522,-27897
-12793,-22266,-27641
-12025,-22010,-27897
-12281,-22266,-27897
-12025,-22010,-28409
-13049,-22778,-28409
-12793,-22778,-28153
-13305,-23034,-28409
-12281,-22778,-28921
-12281,-22778,-28921
-12025,-22266,-28921
-12537,-22266,-28665
-11769,-22266,-28409
-12025,-22266,-28409
-12025,-23034,-28665
-12793,-23034,-28409
-12537,-23034,-28665
-8697,-23290,-28921
-12537,-23290,-28409
-12025,-23034,-29177
-13049,-22266,-29433
-13305,-22522,-29433
-13049,-23290,-29433
-13049,-23290,-29177
-12281,-23290,-29433
-12281,-23290,-29689
-12793,-23290,-29689
-12793,-23034,-29689
-12793,-23034,-29433
-12537,-23290,-29433
-12025,-23546,-29433
-12281,-23802,-29177
-13049,-23802,-29177
-12281,-23546,-29945
-12281,-23802,-29433
-11513,-23034,-29177
-12537,-23034,-28409
-12281,-22266,-28409
-12537,-22266,-28921
-11001,-21242,-29689
-11001,-18682,-29689
-11001,-17146,-30713
-7673,-17402,-31481
-10489,-18426,-32249
-9977,-18682,32263
-10745,-19194,32263
-11513,-19706,-31993
-11257,-19706,-32249
-11001,-19194,-32249
-11001,-20218,-32249
-12793,-23034,-31481
-13305,-24058,-29945
-12281,-24058,-29945
-12025,-24058,-31225
-11769,-24058,-31993
-12281,-25082,-31481
-12281,-24826,-30713
-12793,-24570,-30713
-11513,-24314,-30969
-12281,-24570,-30713
-12537,-25338,-28153
-13817,-29434,-23801
-13561,-32250,-20729
-12537,-32506,-20473
-10489,-30458,-22265
-10489,-22778,-26105
-6649,-8442,27143
-505,-3322,22023
-2041,14342,6664
-3577,14854,3336
-9721,10502,3592
-13817,3846,2568
-13817,-2554,2823
-15609,-8442,7687
-16377,-12794,13063
-17657,-15866,17671
-17401,-19706,21767
-15353,-21754,24583
-13817,-22010,26631
-13817,-22266,28679
-13561,-23802,29959
-12793,-25338,32519
-12793,-25850,-30713
-13305,-26106,-30969
-15097,-26618,-30713
-13561,-27130,-30201
-13305,-27642,-29945
-13049,-27642,-29689
-14073,-28154,-28921
-13561,-28154,-29177
-13561,-28666,-28665
-13817,-28666,-28665
-11257,-28666,-29177
-14073,-28922,-28409
-13561,-28666,-28153
-13049,-28922,-28409
-14585,-29178,-27641
-14841,-29690,-27641
-14585,-29946,-27897
-13561,-30202,-28409
-13817,-29946,-28665
-14073,-29946,-28409
-14329,-29434,-28409
-14329,-30202,-28153
-14073,-30458,-27897
-14073,-30714,-27897
-14841,-30970,-27641
-14329,-31482,-28409
-13561,-31482,-28665
-13817,-31738,-28665
-12793,-31482,-28921
-13561,-31226,-29433
-13305,-31226,-29177
-13817,-31226,-29177
-13305,-31738,-29177
-14073,-31994,-29689
-14073,-32250,-29433
-9721,-32250,-29945
-12025,-31738,-29945
-12537,-31738,-30201
-13049,-31994,-29689
-13817,-31226,-30457
-13049,-30970,-30201
-13049,-30970,-30457
-12537,-29690,-30969
-14073,-29690,-31225
-13561,-29434,-31225
-12793,-28922,-31737
-11769,-27386,-32249
-12281,-26874,-31737
-12537,-26618,-31737
-12537,-25338,-31481
-12537,-25082,-31737
-12281,-24314,-32249
-12537,-23802,-32505
-12793,-23802,-31737
-12793,-23802,-30969
-12793,-23290,-31225
-13305,-23290,-31225
-13305,-23290,-31225
-13049,-23290,-31225
-12281,-23034,-30457
-8441,-23034,-30201
-13561,-23034,-30457
-13817,-23290,-30713
-13049,-23290,-30969
-13049,-23546,-30457
-12537,-23290,-30457
-13049,-23546,-30713
-12537,-23290,-30713
-13817,-23290,-29945
-13561,-23546,-29945
-13049,-23546,-30201
-12793,-23290,-30201
-12793,-23034,-30457
-13305,-23034,-30201
-13817,-23290,-29945
-13305,-23546,-29945
-13049,-23546,-29433
-13049,-23034,-29689
-12537,-22778,-29433
-12537,-22778,-29433
-12793,-23034,-29433
-13561,-23034,-29433
-13049,-22778,-29689
-13305,-22778,-29433
-12537,-22778,-29945
-8953,-23034,-30457
-12537,-23034,-29945
-12025,-22778,-29945
-12025,-22778,-29689
-13305,-23034,-29689
-13561,-23290,-29689
-13561,-23034,-29945
-11769,-22778,-30201
-12793,-23290,-30201
-12537,-23034,-30201
-12537,-22522,-29945
-12793,-22266,-30201
-12793,-22522,-30201
-12793,-23034,-30457
-12793,-23034,-29689
-12537,-23034,-29433
-12025,-23034,-30201
-12281,-23034,-30713
-12281,-23034,-30201
-12025,-23034,-29945
-12537,-22778,-29689
-13305,-23290,-29433
-13049,-23546,-30201
-13049,-23290,-30201
-12537,-22778,-30201
-8185,-22778,-30969
-12281,-22778,-30969
-12537,-23546,-30713
-12537,-23546,-30713
-13561,-23034,-30201
-12793,-22778,-30201
-12281,-22778,-29945
-11001,-22778,-29433
-12281,-22522,-28921
-12281,-21754,-29177
-12025,-19962,-29945
-11001,-18426,-30713
-10489,-18682,-30713
-10233,-18426,-31481
-11001,-18426,-32761
-11001,-19450,32007
-10745,-20218,32007
-10489,-20474,32007
-10233,-19706,31751
-10745,-19962,32519
-12025,-19962,-31737
-12793,-22778,-31225
-12793,-24826,-31481
-12793,-24570,-30969
-12793,-24058,-30457
-8953,-24314,-30713
-12025,-24058,-30713
-12025,-24570,-30713
-12281,-24826,-30713
-13049,-24826,-29689
-12793,-24570,-29433
-13049,-25850,-27897
-13049,-29178,-24057
-14329,32518,-19705
-12281,32262,-19705
-11001,-31738,-21497
-8953,-25082,-26105
-6905,-11258,29959
-3321,4102,17672
-2553,14086,7432
-4345,14342,3592
-7673,11526,4104
-11001,5126,4104
-14329,-2554,3847
-15609,-7418,6919
-16377,-11770,11527
-16377,-15866,17415
-15865,-19194,22279
-15865,-22010,24839
-14585,-22522,26631
-9721,-22266,26887
-12281,-24058,31239
-12793,-25594,-32249
-13049,-25594,-30713
-14329,-25594,-29945
-13305,-26106,-28921
-13561,-27386,-27897
-12025,-27386,-27897
-13305,-27642,-27641
-13049,-27642,-27897
-13305,-28154,-27129
-12537,-28154,-26873
-12793,-27642,-26873
-13049,-27642,-26873
-14073,-28154,-26873
-13561,-28666,-26873
-13049,-28666,-26617
-13305,-28666,-26617
-13305,-28666,-26617
-13049,-28666,-26617
-13049,-28922,-26105
-13561,-29690,-26105
-13561,-29946,-26105
-13305,-29946,-26361
-13561,-29690,-26617
-9721,-29434,-27129
-12793,-29690,-26361
-13049,-30202,-26105
-13817,-30458,-26105
-14841,-30970,-26361
-13817,-30714,-26617
-13817,-31226,-26361
-12537,-31226,-26617
-14329,-31482,-26105
-13305,-31226,-26105
-13305,-30970,-26361
-12537,-31482,-26361
-12281,-31482,-26105
-12281,-31482,-26105
-13817,-31226,-26105
-13561,-30970,-26617
-13561,-30970,-26873
-13049,-30970,-26873
-12793,-30714,-26617
-13049,-30970,-26873
-13561,-30714,-26617
-13305,-29946,-26873
-13049,-29690,-27641
-13049,-29434,-27641
-13049,-28666,-27641
-9209,-27642,-28409
-12537,-26106,-28409
-12537,-25850,-28153
-12537,-25338,-28153
-12793,-24314,-28153
-12281,-23034,-28921
-12025,-23034,-28921
-11769,-22778,-28665
-13049,-22522,-27641
-12537,-22010,-27641
-12537,-21754,-27641
-11257,-21754,-28153
-11769,-22010,-28153
-12025,-22010,-28153
-12793,-21754,-27385
-12793,-21754,-27641
-12793,-21498,-27385
-11513,-21498,-27129
-11513,-21498,-27129
-11769,-22266,-27385
-12025,-22266,-27641
-11769,-21754,-27641
-12281,-21242,-27129
-12537,-21498,-26873
-12793,-21498,-27385
-8697,-21754,-28409
-11769,-21754,-28153
-11513,-20986,-26873
-12281,-20986,-26617
-12537,-20730,-26873
-11769,-20986,-27385
-11769,-20986,-27385
-11001,-21242,-27385
-12793,-20474,-26873
-12025,-19962,-27641
-11257,-20218,-27641
-11257,-20218,-27641
-12025,-20730,-27129
-11513,-20986,-26873
-12281,-20986,-27129
-12025,-20730,-27385
-12281,-21498,-27129
-11769,-21498,-27129
